24/03/2022 11:00:51
Spectrometer: USB2G54090
Integration time (ms): 185.0
Scans averaged: 15

Wavelength,Intensity
350.000,1.832
351.000,1.115
352.000,1.141
353.000,1.702
354.000,1.933
355.000,3.063
356.000,2.732
357.000,1.097
358.000,1.381
359.000,1.572
360.000,0.218
361.000,0.225
362.000,0.196
363.000,-0.152
364.000,1.051
365.000,-2.315
366.000,-2.884
367.000,-4.413
368.000,-5.743
369.000,-6.038
370.000,-8.399
371.000,-8.518
372.000,-9.540
373.000,-10.358
374.000,-8.678
375.000,-11.873
376.000,-11.119
377.000,-10.923
378.000,-6.881
379.000,-5.139
380.000,-2.977
381.000,-4.396
382.000,-3.074
383.000,-2.125
384.000,-1.468
385.000,0.598
386.000,0.640
387.000,1.990
388.000,1.285
389.000,2.131
390.000,2.044
391.000,2.662
392.000,3.602
393.000,4.179
394.000,4.604
395.000,5.081
396.000,4.497
397.000,5.407
398.000,5.627
399.000,6.252
400.000,7.225
401.000,6.666
402.000,5.906
403.000,7.779
404.000,10.040
405.000,9.366
406.000,9.848
407.000,9.544
408.000,9.950
409.000,9.606
410.000,10.530
411.000,11.985
412.000,12.073
413.000,13.547
414.000,14.218
415.000,15.777
416.000,17.248
417.000,18.731
418.000,20.227
419.000,21.112
420.000,25.144
421.000,28.059
422.000,28.507
423.000,30.942
424.000,33.767
425.000,34.841
426.000,38.918
427.000,45.418
428.000,46.099
429.000,50.528
430.000,57.121
431.000,64.767
432.000,70.342
433.000,74.157
434.000,82.933
435.000,91.266
436.000,101.717
437.000,110.029
438.000,121.654
439.000,137.996
440.000,147.632
441.000,162.008
442.000,174.746
443.000,201.386
444.000,216.395
445.000,232.056
446.000,254.348
447.000,265.878
448.000,287.511
449.000,300.516
450.000,340.301
451.000,356.995
452.000,372.596
453.000,399.182
454.000,418.957
455.000,441.783
456.000,474.754
457.000,508.330
458.000,533.391
459.000,573.452
460.000,613.737
461.000,641.255
462.000,687.311
463.000,714.523
464.000,764.355
465.000,805.041
466.000,861.242
467.000,906.261
468.000,981.336
469.000,1032.814
470.000,1070.508
471.000,1172.411
472.000,1239.736
473.000,1286.495
474.000,1367.456
475.000,1453.849
476.000,1523.543
477.000,1672.074
478.000,1734.962
479.000,1767.853
480.000,1940.756
481.000,2027.711
482.000,2113.562
483.000,2242.720
484.000,2343.876
485.000,2450.195
486.000,2575.102
487.000,2649.819
488.000,2702.188
489.000,2909.725
490.000,2961.417
491.000,3041.320
492.000,3126.875
493.000,3168.632
494.000,3312.358
495.000,3312.505
496.000,3407.518
497.000,3425.200
498.000,3420.403
499.000,3487.167
500.000,3441.549
501.000,3485.798
502.000,3542.052
503.000,3470.815
504.000,3481.645
505.000,3479.935
506.000,3485.850
507.000,3470.291
508.000,3381.584
509.000,3356.447
510.000,3274.505
511.000,3328.255
512.000,3242.844
513.000,3250.731
514.000,3144.050
515.000,3099.492
516.000,3053.513
517.000,2945.553
518.000,2942.190
519.000,2875.899
520.000,2831.813
521.000,2778.693
522.000,2732.480
523.000,2657.513
524.000,2565.129
525.000,2540.088
526.000,2442.134
527.000,2373.918
528.000,2324.752
529.000,2245.287
530.000,2233.041
531.000,2173.643
532.000,2084.676
533.000,2041.999
534.000,2008.186
535.000,1918.667
536.000,1860.264
537.000,1782.286
538.000,1762.150
539.000,1716.647
540.000,1680.488
541.000,1632.889
542.000,1558.885
543.000,1531.842
544.000,1483.062
545.000,1434.488
546.000,1376.076
547.000,1343.746
548.000,1300.495
549.000,1252.707
550.000,1214.351
551.000,1169.586
552.000,1122.796
553.000,1091.627
554.000,1042.188
555.000,992.383
556.000,959.456
557.000,907.832
558.000,885.587
559.000,852.194
560.000,814.616
561.000,787.321
562.000,740.199
563.000,723.511
564.000,691.136
565.000,659.816
566.000,635.056
567.000,602.693
568.000,580.731
569.000,570.762
570.000,543.428
571.000,515.928
572.000,496.392
573.000,485.781
574.000,467.168
575.000,446.588
576.000,435.906
577.000,410.652
578.000,398.425
579.000,380.857
580.000,366.275
581.000,351.840
582.000,336.042
583.000,323.340
584.000,315.478
585.000,301.274
586.000,287.534
587.000,273.587
588.000,264.762
589.000,258.500
590.000,247.969
591.000,238.881
592.000,229.585
593.000,219.716
594.000,212.953
595.000,202.617
596.000,193.379
597.000,186.341
598.000,179.047
599.000,173.312
600.000,169.588
601.000,158.829
602.000,153.603
603.000,146.637
604.000,140.814
605.000,133.310
606.000,128.147
607.000,122.583
608.000,117.759
609.000,115.687
610.000,110.819
611.000,106.694
612.000,102.949
613.000,99.418
614.000,93.036
615.000,94.652
616.000,84.668
617.000,82.542
618.000,80.150
619.000,76.241
620.000,73.386
621.000,71.976
622.000,73.757
623.000,64.991
624.000,64.719
625.000,63.973
626.000,57.906
627.000,56.891
628.000,53.995
629.000,52.839
630.000,50.609
631.000,49.761
632.000,48.630
633.000,46.468
634.000,67.096
635.000,38.217
636.000,40.610
637.000,39.005
638.000,38.362
639.000,35.952
640.000,36.006
641.000,32.719
642.000,33.423
643.000,33.479
644.000,29.484
645.000,30.215
646.000,28.210
647.000,27.347
648.000,26.495
649.000,23.115
650.000,22.641
651.000,23.513
652.000,21.452
653.000,21.996
654.000,18.893
655.000,20.344
656.000,19.436
657.000,18.758
658.000,17.833
659.000,17.983
660.000,16.700
661.000,16.220
662.000,15.008
663.000,15.279
664.000,14.426
665.000,12.638
666.000,13.867
667.000,13.047
668.000,11.581
669.000,11.686
670.000,12.924
671.000,11.432
672.000,11.223
673.000,11.295
674.000,10.467
675.000,10.001
676.000,10.063
677.000,10.165
678.000,9.396
679.000,8.457
680.000,9.803
681.000,7.881
682.000,7.170
683.000,8.314
684.000,9.756
685.000,7.741
686.000,6.537
687.000,6.681
688.000,6.757
689.000,4.959
690.000,5.901
691.000,6.262
692.000,6.266
693.000,6.150
694.000,5.798
695.000,5.517
696.000,5.648
697.000,4.077
698.000,2.878
699.000,5.426
700.000,6.581
701.000,4.740
702.000,3.774
703.000,3.976
704.000,4.542
705.000,4.254
706.000,4.098
707.000,3.295
708.000,3.601
709.000,3.593
710.000,3.151
711.000,3.896
712.000,2.294
713.000,4.101
714.000,3.334
715.000,3.083
716.000,3.193
717.000,3.397
718.000,2.188
719.000,4.318
720.000,3.863
721.000,3.798
722.000,3.300
723.000,4.719
724.000,2.629
725.000,2.457
726.000,3.520
727.000,3.752
728.000,2.208
729.000,2.341
730.000,3.079
731.000,1.962
732.000,2.434
733.000,2.913
734.000,2.653
735.000,1.954
736.000,3.860
737.000,2.036
738.000,2.465
739.000,1.222
740.000,0.718
741.000,1.581
742.000,2.450
743.000,1.282
744.000,0.604
745.000,1.876
746.000,1.513
747.000,-0.141
748.000,1.387
749.000,0.793
750.000,1.487
751.000,-0.117
752.000,0.522
753.000,2.399
754.000,2.957
755.000,0.508
756.000,1.269
757.000,1.748
758.000,1.921
759.000,2.236
760.000,2.399
761.000,3.010
762.000,0.661
763.000,1.423
764.000,1.121
765.000,1.117
766.000,0.782
767.000,0.141
768.000,0.106
769.000,1.144
770.000,1.674
771.000,0.802
772.000,1.153
773.000,0.756
774.000,0.170
775.000,0.523
776.000,0.008
777.000,1.035
778.000,2.050
779.000,0.505
780.000,3.273
781.000,1.449
782.000,-0.159
783.000,0.160
784.000,0.451
785.000,2.251
786.000,0.422
787.000,0.033
788.000,-0.245
789.000,0.975
790.000,1.206
791.000,0.730
792.000,1.119
793.000,-0.021
794.000,0.637
795.000,0.950
796.000,0.197
797.000,0.550
798.000,0.683
799.000,1.534
800.000,0.594
801.000,2.047
802.000,1.090
803.000,0.321
804.000,0.825
805.000,0.913
806.000,0.355
807.000,0.484
808.000,0.713
809.000,1.957
810.000,1.564
811.000,2.283
812.000,0.754
813.000,0.179
814.000,0.210
815.000,0.430
816.000,1.381
817.000,0.726
818.000,1.777
819.000,1.726
820.000,0.044
821.000,0.489
822.000,-0.442
823.000,0.933
824.000,0.108
825.000,0.201
826.000,-0.206
827.000,-0.375
828.000,1.030
829.000,0.606
830.000,0.780
831.000,0.474
832.000,-0.238
833.000,0.451
834.000,1.145
835.000,0.990
836.000,1.072
837.000,1.376
838.000,1.512
839.000,1.126
840.000,0.895
841.000,1.881
842.000,1.938
843.000,2.109
844.000,0.807
845.000,1.640
846.000,0.368
847.000,1.693
848.000,1.209
849.000,1.570
850.000,1.908
851.000,0.944
852.000,0.076
853.000,0.754
854.000,0.930
855.000,1.118
856.000,0.441
857.000,1.472
858.000,0.539
859.000,0.943
860.000,1.846
861.000,1.342
862.000,1.233
863.000,0.066
864.000,-1.419
865.000,0.281
866.000,0.658
867.000,1.249
868.000,1.365
869.000,1.998
870.000,-0.484
871.000,0.496
872.000,1.139
873.000,-0.479
874.000,0.263
875.000,0.445
876.000,0.995
877.000,0.993
878.000,0.815
879.000,1.015
880.000,1.167
881.000,0.813
882.000,1.797
883.000,0.070
884.000,0.389
885.000,0.405
886.000,0.335
887.000,0.423
888.000,0.102
889.000,1.093
890.000,0.240
891.000,0.202
892.000,-0.131
893.000,1.080
894.000,1.303
895.000,1.840
896.000,0.430
897.000,1.004
898.000,0.721
899.000,0.549
900.000,-0.045
901.000,0.596
902.000,1.643
903.000,0.996
904.000,1.556
905.000,0.954
906.000,-0.023
907.000,-0.384
908.000,-0.115
909.000,-0.243
910.000,0.344
911.000,-0.510
912.000,1.086
913.000,0.671
914.000,0.885
915.000,1.809
916.000,2.182
917.000,1.628
918.000,1.331
919.000,0.155
920.000,-0.575
921.000,2.227
922.000,0.225
923.000,-0.026
924.000,0.809
925.000,0.445
926.000,0.483
927.000,0.744
928.000,0.196
929.000,-0.268
930.000,1.060
931.000,0.126
932.000,1.673
933.000,2.183
934.000,1.153
935.000,-0.113
936.000,1.219
937.000,1.191
938.000,1.239
939.000,0.705
940.000,1.179
941.000,1.874
942.000,1.642
943.000,-0.049
944.000,-0.241
945.000,0.797
946.000,-0.932
947.000,0.206
948.000,1.220
949.000,-0.018
950.000,1.313
951.000,-0.038
952.000,0.269
953.000,-0.107
954.000,0.460
955.000,0.585
956.000,1.136
957.000,0.382
958.000,-0.029
959.000,0.222
960.000,-0.220
961.000,-0.318
962.000,0.656
963.000,0.132
964.000,0.275
965.000,0.080
966.000,0.838
967.000,0.800
968.000,0.702
969.000,0.486
970.000,-0.444
971.000,-0.504
972.000,-0.356
973.000,0.400
974.000,2.349
975.000,-0.014
976.000,-0.481
977.000,-0.378
978.000,0.343
979.000,-0.793
980.000,-0.252
981.000,-0.438
982.000,0.341
983.000,-0.740
984.000,1.082
985.000,0.777
986.000,-0.678
987.000,0.598
988.000,0.445
989.000,0.330
990.000,-0.305
991.000,0.519
992.000,1.692
993.000,-0.503
994.000,0.009
995.000,0.586
996.000,-0.572
997.000,-0.004
998.000,-0.035
999.000,-0.725
1000.000,-1.352
