24/03/2022 11:07:10
Spectrometer: USB2G54090
Integration time (ms): 140.0
Scans averaged: 15

Wavelength,Intensity
350.000,1.731
351.000,1.583
352.000,1.197
353.000,1.259
354.000,0.936
355.000,0.478
356.000,0.559
357.000,0.573
358.000,-2.004
359.000,-3.077
360.000,-5.379
361.000,-6.201
362.000,-9.073
363.000,-14.079
364.000,-20.188
365.000,-26.258
366.000,-39.722
367.000,-50.653
368.000,-69.081
369.000,-83.196
370.000,-94.282
371.000,-104.412
372.000,-126.141
373.000,-134.355
374.000,-133.678
375.000,-136.444
376.000,-125.551
377.000,-113.886
378.000,-103.713
379.000,-91.836
380.000,-77.499
381.000,-66.051
382.000,-54.760
383.000,-47.898
384.000,-37.530
385.000,-33.326
386.000,-29.211
387.000,-17.629
388.000,-17.722
389.000,-14.501
390.000,-12.615
391.000,-9.541
392.000,-7.045
393.000,-7.119
394.000,-5.363
395.000,-3.161
396.000,-2.419
397.000,-1.187
398.000,-0.549
399.000,1.125
400.000,1.629
401.000,3.123
402.000,2.811
403.000,3.240
404.000,3.951
405.000,4.808
406.000,6.294
407.000,5.974
408.000,5.775
409.000,5.849
410.000,7.293
411.000,8.537
412.000,9.093
413.000,10.268
414.000,10.041
415.000,10.053
416.000,11.858
417.000,12.861
418.000,13.925
419.000,14.438
420.000,16.744
421.000,17.992
422.000,20.627
423.000,22.073
424.000,23.732
425.000,26.913
426.000,29.030
427.000,32.159
428.000,32.934
429.000,38.051
430.000,41.726
431.000,46.859
432.000,49.469
433.000,56.962
434.000,62.910
435.000,69.239
436.000,78.094
437.000,84.772
438.000,95.812
439.000,107.574
440.000,118.187
441.000,128.718
442.000,143.639
443.000,161.746
444.000,173.226
445.000,189.328
446.000,209.282
447.000,223.802
448.000,242.175
449.000,254.219
450.000,289.520
451.000,307.202
452.000,325.299
453.000,343.533
454.000,364.157
455.000,391.675
456.000,419.919
457.000,456.331
458.000,478.319
459.000,514.906
460.000,553.230
461.000,589.499
462.000,634.050
463.000,668.288
464.000,708.640
465.000,752.991
466.000,811.460
467.000,859.645
468.000,933.449
469.000,985.801
470.000,1028.403
471.000,1136.033
472.000,1208.656
473.000,1270.738
474.000,1353.117
475.000,1444.842
476.000,1529.757
477.000,1676.220
478.000,1748.812
479.000,1794.960
480.000,1986.879
481.000,2085.354
482.000,2181.258
483.000,2326.863
484.000,2445.328
485.000,2565.849
486.000,2714.669
487.000,2792.357
488.000,2865.264
489.000,3101.604
490.000,3178.100
491.000,3266.492
492.000,3377.354
493.000,3440.519
494.000,3611.846
495.000,3626.764
496.000,3746.958
497.000,3776.815
498.000,3804.904
499.000,3869.023
500.000,3834.896
501.000,3910.502
502.000,3957.443
503.000,3909.549
504.000,3933.508
505.000,3953.955
506.000,3956.917
507.000,3950.701
508.000,3881.137
509.000,3866.160
510.000,3800.598
511.000,3857.045
512.000,3766.161
513.000,3786.812
514.000,3687.632
515.000,3628.996
516.000,3582.609
517.000,3451.258
518.000,3479.718
519.000,3397.414
520.000,3362.632
521.000,3315.292
522.000,3270.214
523.000,3178.665
524.000,3079.040
525.000,3058.447
526.000,2944.100
527.000,2870.267
528.000,2817.752
529.000,2721.381
530.000,2714.306
531.000,2635.316
532.000,2554.440
533.000,2501.640
534.000,2445.176
535.000,2360.572
536.000,2282.206
537.000,2191.320
538.000,2173.585
539.000,2127.628
540.000,2076.413
541.000,2022.682
542.000,1930.008
543.000,1909.079
544.000,1853.677
545.000,1797.868
546.000,1721.906
547.000,1684.519
548.000,1623.832
549.000,1574.434
550.000,1524.343
551.000,1467.326
552.000,1403.812
553.000,1360.843
554.000,1308.065
555.000,1247.772
556.000,1213.288
557.000,1140.950
558.000,1113.839
559.000,1074.200
560.000,1027.330
561.000,994.354
562.000,937.776
563.000,908.390
564.000,871.562
565.000,837.416
566.000,801.763
567.000,769.335
568.000,733.849
569.000,722.883
570.000,693.513
571.000,663.912
572.000,634.129
573.000,618.065
574.000,595.388
575.000,568.342
576.000,552.900
577.000,525.141
578.000,514.189
579.000,487.304
580.000,465.874
581.000,448.494
582.000,431.136
583.000,414.544
584.000,408.812
585.000,388.541
586.000,373.565
587.000,352.595
588.000,346.798
589.000,330.095
590.000,320.187
591.000,308.280
592.000,297.757
593.000,283.642
594.000,271.556
595.000,265.674
596.000,251.837
597.000,242.697
598.000,233.770
599.000,223.417
600.000,217.273
601.000,206.323
602.000,196.648
603.000,190.322
604.000,182.664
605.000,172.936
606.000,167.503
607.000,160.122
608.000,153.713
609.000,146.917
610.000,142.902
611.000,138.522
612.000,131.761
613.000,134.917
614.000,122.503
615.000,119.351
616.000,111.818
617.000,108.132
618.000,104.361
619.000,99.943
620.000,95.046
621.000,90.393
622.000,92.049
623.000,81.538
624.000,82.017
625.000,79.825
626.000,77.211
627.000,73.779
628.000,70.529
629.000,68.924
630.000,66.285
631.000,64.352
632.000,61.188
633.000,59.552
634.000,85.016
635.000,50.326
636.000,52.333
637.000,51.125
638.000,50.507
639.000,48.057
640.000,47.277
641.000,42.808
642.000,42.452
643.000,39.753
644.000,40.017
645.000,37.894
646.000,36.473
647.000,35.483
648.000,34.095
649.000,33.701
650.000,32.899
651.000,30.438
652.000,28.915
653.000,28.359
654.000,25.883
655.000,25.028
656.000,26.191
657.000,24.253
658.000,22.634
659.000,23.170
660.000,20.530
661.000,20.070
662.000,20.107
663.000,19.041
664.000,18.215
665.000,17.533
666.000,16.797
667.000,16.205
668.000,15.265
669.000,15.713
670.000,14.929
671.000,15.800
672.000,13.714
673.000,13.634
674.000,13.579
675.000,12.134
676.000,10.644
677.000,11.316
678.000,11.152
679.000,11.151
680.000,10.932
681.000,9.991
682.000,9.066
683.000,9.648
684.000,7.866
685.000,7.303
686.000,8.612
687.000,7.739
688.000,7.723
689.000,8.758
690.000,6.425
691.000,6.320
692.000,6.446
693.000,6.969
694.000,6.000
695.000,5.969
696.000,6.016
697.000,4.576
698.000,6.160
699.000,5.774
700.000,3.738
701.000,4.771
702.000,4.798
703.000,5.086
704.000,5.642
705.000,5.169
706.000,5.107
707.000,4.851
708.000,4.791
709.000,5.009
710.000,4.177
711.000,6.474
712.000,4.496
713.000,3.926
714.000,3.464
715.000,3.818
716.000,2.693
717.000,4.489
718.000,3.901
719.000,2.884
720.000,2.950
721.000,2.629
722.000,1.984
723.000,3.171
724.000,2.811
725.000,3.263
726.000,3.629
727.000,2.807
728.000,2.696
729.000,1.655
730.000,1.921
731.000,1.491
732.000,2.766
733.000,2.049
734.000,2.493
735.000,1.185
736.000,0.322
737.000,2.491
738.000,1.665
739.000,0.894
740.000,2.513
741.000,1.523
742.000,1.207
743.000,1.458
744.000,2.363
745.000,1.634
746.000,0.333
747.000,2.681
748.000,0.642
749.000,2.032
750.000,0.630
751.000,1.014
752.000,0.834
753.000,0.462
754.000,0.613
755.000,1.638
756.000,1.298
757.000,0.228
758.000,0.367
759.000,0.436
760.000,1.325
761.000,2.031
762.000,1.480
763.000,0.631
764.000,0.606
765.000,0.884
766.000,0.864
767.000,1.310
768.000,0.687
769.000,0.430
770.000,0.638
771.000,0.473
772.000,1.783
773.000,0.777
774.000,0.960
775.000,0.843
776.000,0.571
777.000,1.214
778.000,0.591
779.000,0.074
780.000,-0.154
781.000,1.108
782.000,-0.202
783.000,0.235
784.000,1.110
785.000,-1.242
786.000,0.728
787.000,1.333
788.000,1.069
789.000,0.160
790.000,1.396
791.000,-0.269
792.000,-0.089
793.000,0.911
794.000,1.868
795.000,-0.264
796.000,1.650
797.000,0.971
798.000,-1.215
799.000,-0.249
800.000,1.078
801.000,-0.841
802.000,-0.199
803.000,-0.396
804.000,0.697
805.000,0.993
806.000,0.193
807.000,0.000
808.000,0.144
809.000,0.215
810.000,-0.923
811.000,0.734
812.000,0.065
813.000,0.077
814.000,-0.301
815.000,-0.100
816.000,-0.177
817.000,0.750
818.000,-2.026
819.000,0.079
820.000,-1.311
821.000,-0.398
822.000,0.336
823.000,0.467
824.000,0.350
825.000,0.255
826.000,0.809
827.000,0.343
828.000,1.065
829.000,1.290
830.000,0.376
831.000,0.262
832.000,0.671
833.000,-0.232
834.000,-0.042
835.000,-0.247
836.000,-0.269
837.000,0.442
838.000,-0.127
839.000,0.428
840.000,0.161
841.000,0.616
842.000,0.066
843.000,-1.182
844.000,0.824
845.000,0.535
846.000,0.931
847.000,1.417
848.000,0.266
849.000,-0.060
850.000,-0.105
851.000,-0.084
852.000,0.131
853.000,0.803
854.000,0.779
855.000,1.228
856.000,-0.015
857.000,-0.044
858.000,0.132
859.000,-0.931
860.000,-0.274
861.000,-0.574
862.000,0.620
863.000,0.868
864.000,-0.101
865.000,0.187
866.000,-0.266
867.000,-0.626
868.000,-0.164
869.000,-0.137
870.000,1.306
871.000,-0.309
872.000,-1.172
873.000,-0.380
874.000,-0.295
875.000,0.731
876.000,0.025
877.000,-0.873
878.000,-0.266
879.000,-0.859
880.000,-0.086
881.000,0.254
882.000,-0.028
883.000,0.544
884.000,-0.255
885.000,0.805
886.000,-1.027
887.000,-0.545
888.000,-1.343
889.000,-0.065
890.000,0.839
891.000,-0.678
892.000,0.332
893.000,-1.230
894.000,-0.466
895.000,0.021
896.000,0.027
897.000,0.519
898.000,1.503
899.000,0.212
900.000,0.276
901.000,-0.107
902.000,-1.127
903.000,-0.093
904.000,0.339
905.000,-0.676
906.000,-0.431
907.000,0.224
908.000,-0.518
909.000,-1.057
910.000,0.130
911.000,0.555
912.000,-1.121
913.000,-0.800
914.000,-0.194
915.000,0.373
916.000,-1.281
917.000,0.983
918.000,-0.295
919.000,-0.815
920.000,-0.349
921.000,-1.642
922.000,0.244
923.000,-0.365
924.000,0.729
925.000,1.319
926.000,0.480
927.000,-0.779
928.000,-0.362
929.000,-0.095
930.000,0.297
931.000,-0.483
932.000,-0.331
933.000,0.087
934.000,-0.797
935.000,-0.883
936.000,-0.057
937.000,-1.005
938.000,-0.502
939.000,-0.666
940.000,0.464
941.000,-0.979
942.000,-1.100
943.000,0.086
944.000,-0.790
945.000,0.165
946.000,-1.208
947.000,0.180
948.000,-0.170
949.000,-1.434
950.000,-0.875
951.000,-0.995
952.000,-0.382
953.000,-0.080
954.000,-1.214
955.000,0.053
956.000,-0.238
957.000,-0.556
958.000,0.164
959.000,0.223
960.000,-0.383
961.000,-0.430
962.000,-0.599
963.000,0.743
964.000,1.193
965.000,0.687
966.000,-0.549
967.000,-0.028
968.000,-0.770
969.000,-0.001
970.000,0.337
971.000,0.042
972.000,0.566
973.000,-0.374
974.000,-2.941
975.000,-1.656
976.000,-0.619
977.000,1.142
978.000,-0.218
979.000,0.525
980.000,-0.409
981.000,-0.002
982.000,-0.301
983.000,0.422
984.000,-0.930
985.000,0.274
986.000,0.601
987.000,-0.312
988.000,-0.221
989.000,-0.631
990.000,-0.538
991.000,-1.029
992.000,-0.767
993.000,-0.873
994.000,-0.241
995.000,-1.121
996.000,-0.665
997.000,-0.139
998.000,0.967
999.000,-0.423
1000.000,-0.666
