24/03/2022 10:54:55
Spectrometer: USB2G54090
Integration time (ms): 150.0
Scans averaged: 15

Wavelength,Intensity
350.000,-0.421
351.000,-1.017
352.000,-0.440
353.000,-1.182
354.000,-3.537
355.000,-5.374
356.000,-8.016
357.000,-10.998
358.000,-17.805
359.000,-21.322
360.000,-32.260
361.000,-43.362
362.000,-61.203
363.000,-83.669
364.000,-111.477
365.000,-141.580
366.000,-191.392
367.000,-257.220
368.000,-322.848
369.000,-393.322
370.000,-444.891
371.000,-502.475
372.000,-558.225
373.000,-610.182
374.000,-624.146
375.000,-640.706
376.000,-574.862
377.000,-519.496
378.000,-486.302
379.000,-426.297
380.000,-371.957
381.000,-302.563
382.000,-255.305
383.000,-211.825
384.000,-173.200
385.000,-145.353
386.000,-115.469
387.000,-88.014
388.000,-79.319
389.000,-61.109
390.000,-50.628
391.000,-42.867
392.000,-31.507
393.000,-28.785
394.000,-22.233
395.000,-17.054
396.000,-12.303
397.000,-11.010
398.000,-5.447
399.000,-2.824
400.000,-0.856
401.000,2.092
402.000,2.767
403.000,5.222
404.000,6.969
405.000,8.801
406.000,11.308
407.000,12.616
408.000,15.658
409.000,17.667
410.000,20.506
411.000,20.985
412.000,23.690
413.000,26.149
414.000,28.955
415.000,31.166
416.000,35.660
417.000,38.601
418.000,42.229
419.000,47.593
420.000,55.646
421.000,59.356
422.000,62.148
423.000,68.965
424.000,75.745
425.000,81.710
426.000,90.128
427.000,98.040
428.000,104.845
429.000,116.058
430.000,127.659
431.000,141.984
432.000,153.636
433.000,161.230
434.000,182.439
435.000,198.677
436.000,214.259
437.000,234.739
438.000,256.785
439.000,282.850
440.000,303.758
441.000,324.521
442.000,356.960
443.000,397.163
444.000,416.473
445.000,446.339
446.000,483.403
447.000,501.894
448.000,538.244
449.000,544.251
450.000,606.139
451.000,633.897
452.000,652.926
453.000,685.978
454.000,719.061
455.000,755.058
456.000,788.121
457.000,834.565
458.000,871.183
459.000,916.859
460.000,965.861
461.000,1006.801
462.000,1062.398
463.000,1097.413
464.000,1159.588
465.000,1204.490
466.000,1280.448
467.000,1320.400
468.000,1417.500
469.000,1466.258
470.000,1511.909
471.000,1641.810
472.000,1718.950
473.000,1768.152
474.000,1851.219
475.000,1938.430
476.000,2013.289
477.000,2181.104
478.000,2243.432
479.000,2263.115
480.000,2468.540
481.000,2548.552
482.000,2628.346
483.000,2753.973
484.000,2862.228
485.000,2959.194
486.000,3078.446
487.000,3128.107
488.000,3171.668
489.000,3392.105
490.000,3419.213
491.000,3475.955
492.000,3536.885
493.000,3575.738
494.000,3700.910
495.000,3672.734
496.000,3741.479
497.000,3729.595
498.000,3711.873
499.000,3739.073
500.000,3674.071
501.000,3706.750
502.000,3742.085
503.000,3643.625
504.000,3624.704
505.000,3600.321
506.000,3595.996
507.000,3550.700
508.000,3444.132
509.000,3390.314
510.000,3301.485
511.000,3327.132
512.000,3225.218
513.000,3221.586
514.000,3098.202
515.000,3032.247
516.000,2976.356
517.000,2852.671
518.000,2840.808
519.000,2758.822
520.000,2706.135
521.000,2654.732
522.000,2600.276
523.000,2513.736
524.000,2421.960
525.000,2376.269
526.000,2282.504
527.000,2204.476
528.000,2153.362
529.000,2060.475
530.000,2055.992
531.000,1988.608
532.000,1908.216
533.000,1865.262
534.000,1826.376
535.000,1743.406
536.000,1677.196
537.000,1602.528
538.000,1584.406
539.000,1540.109
540.000,1498.138
541.000,1441.961
542.000,1382.461
543.000,1355.212
544.000,1305.841
545.000,1265.821
546.000,1203.913
547.000,1176.511
548.000,1129.549
549.000,1096.143
550.000,1053.557
551.000,1018.159
552.000,970.503
553.000,941.177
554.000,888.963
555.000,852.952
556.000,825.113
557.000,776.556
558.000,756.114
559.000,729.111
560.000,696.474
561.000,668.799
562.000,631.003
563.000,615.169
564.000,580.442
565.000,557.177
566.000,539.101
567.000,504.921
568.000,485.313
569.000,481.957
570.000,454.020
571.000,433.957
572.000,418.039
573.000,403.369
574.000,388.485
575.000,369.321
576.000,359.139
577.000,343.921
578.000,330.619
579.000,312.735
580.000,302.121
581.000,290.416
582.000,275.159
583.000,263.853
584.000,262.900
585.000,247.161
586.000,234.651
587.000,225.783
588.000,216.137
589.000,209.486
590.000,203.779
591.000,194.160
592.000,188.783
593.000,182.148
594.000,174.524
595.000,162.695
596.000,158.609
597.000,150.607
598.000,150.678
599.000,142.323
600.000,134.716
601.000,130.590
602.000,125.686
603.000,120.045
604.000,116.566
605.000,103.307
606.000,105.666
607.000,100.714
608.000,99.173
609.000,93.042
610.000,89.653
611.000,85.269
612.000,83.214
613.000,83.474
614.000,77.049
615.000,77.016
616.000,67.390
617.000,69.895
618.000,65.608
619.000,60.154
620.000,59.199
621.000,56.698
622.000,57.249
623.000,49.723
624.000,50.788
625.000,48.806
626.000,47.587
627.000,46.156
628.000,43.575
629.000,42.505
630.000,41.165
631.000,40.457
632.000,39.944
633.000,37.218
634.000,65.510
635.000,30.183
636.000,33.388
637.000,30.839
638.000,31.807
639.000,30.628
640.000,28.303
641.000,28.701
642.000,25.269
643.000,25.673
644.000,24.392
645.000,23.877
646.000,23.596
647.000,21.869
648.000,19.816
649.000,18.611
650.000,20.292
651.000,18.374
652.000,17.928
653.000,18.282
654.000,16.838
655.000,15.787
656.000,16.713
657.000,15.394
658.000,14.642
659.000,14.804
660.000,13.895
661.000,13.942
662.000,14.393
663.000,13.422
664.000,11.258
665.000,11.992
666.000,11.296
667.000,10.404
668.000,11.621
669.000,10.364
670.000,9.660
671.000,9.815
672.000,8.581
673.000,8.649
674.000,9.099
675.000,8.634
676.000,7.215
677.000,6.555
678.000,7.247
679.000,5.798
680.000,6.072
681.000,7.348
682.000,7.175
683.000,6.775
684.000,7.486
685.000,7.130
686.000,6.306
687.000,5.569
688.000,5.699
689.000,5.462
690.000,5.206
691.000,5.225
692.000,5.518
693.000,5.351
694.000,5.399
695.000,4.072
696.000,5.344
697.000,5.289
698.000,4.020
699.000,3.413
700.000,3.075
701.000,2.550
702.000,3.896
703.000,3.652
704.000,4.352
705.000,3.664
706.000,3.913
707.000,4.103
708.000,3.008
709.000,2.688
710.000,3.826
711.000,3.194
712.000,1.715
713.000,2.974
714.000,2.936
715.000,3.607
716.000,4.805
717.000,1.983
718.000,2.585
719.000,2.169
720.000,2.712
721.000,3.890
722.000,2.468
723.000,2.812
724.000,2.106
725.000,2.171
726.000,1.581
727.000,1.161
728.000,1.938
729.000,1.598
730.000,1.711
731.000,2.140
732.000,2.180
733.000,2.764
734.000,2.490
735.000,1.622
736.000,1.872
737.000,1.372
738.000,1.954
739.000,2.974
740.000,1.248
741.000,1.154
742.000,0.825
743.000,1.620
744.000,0.525
745.000,1.702
746.000,1.362
747.000,1.367
748.000,0.856
749.000,0.976
750.000,1.423
751.000,1.931
752.000,2.629
753.000,0.888
754.000,1.388
755.000,1.449
756.000,2.048
757.000,2.798
758.000,1.321
759.000,1.872
760.000,1.068
761.000,2.282
762.000,1.713
763.000,1.667
764.000,1.038
765.000,2.860
766.000,1.777
767.000,2.127
768.000,1.330
769.000,1.107
770.000,2.219
771.000,-0.000
772.000,0.247
773.000,1.662
774.000,0.915
775.000,1.092
776.000,1.413
777.000,1.224
778.000,0.039
779.000,1.263
780.000,1.675
781.000,0.878
782.000,0.784
783.000,1.237
784.000,-0.216
785.000,1.364
786.000,1.777
787.000,1.631
788.000,0.629
789.000,-1.007
790.000,0.800
791.000,1.145
792.000,2.422
793.000,1.181
794.000,0.133
795.000,0.437
796.000,1.598
797.000,-0.063
798.000,1.226
799.000,1.895
800.000,0.830
801.000,1.557
802.000,2.280
803.000,0.600
804.000,2.165
805.000,0.911
806.000,0.737
807.000,1.571
808.000,0.921
809.000,1.392
810.000,2.224
811.000,1.297
812.000,0.417
813.000,-0.106
814.000,1.132
815.000,1.210
816.000,0.310
817.000,0.303
818.000,1.329
819.000,1.853
820.000,1.055
821.000,1.056
822.000,0.642
823.000,0.200
824.000,1.010
825.000,1.038
826.000,0.624
827.000,1.864
828.000,1.356
829.000,1.189
830.000,2.030
831.000,1.868
832.000,0.043
833.000,0.331
834.000,1.290
835.000,1.788
836.000,1.228
837.000,1.001
838.000,1.601
839.000,1.176
840.000,0.246
841.000,1.703
842.000,1.372
843.000,0.741
844.000,0.977
845.000,0.919
846.000,0.809
847.000,1.662
848.000,0.552
849.000,0.407
850.000,0.440
851.000,1.610
852.000,0.860
853.000,0.549
854.000,1.671
855.000,0.903
856.000,1.490
857.000,0.723
858.000,0.070
859.000,1.777
860.000,0.836
861.000,0.760
862.000,0.289
863.000,0.838
864.000,0.778
865.000,0.756
866.000,1.052
867.000,1.220
868.000,0.059
869.000,1.067
870.000,0.936
871.000,-0.008
872.000,0.547
873.000,0.908
874.000,0.489
875.000,1.457
876.000,0.634
877.000,0.608
878.000,-0.213
879.000,-0.258
880.000,-0.315
881.000,0.576
882.000,0.001
883.000,0.788
884.000,0.739
885.000,1.267
886.000,0.612
887.000,0.661
888.000,0.431
889.000,0.176
890.000,1.609
891.000,-1.013
892.000,1.110
893.000,0.650
894.000,0.932
895.000,1.308
896.000,0.891
897.000,0.526
898.000,1.377
899.000,0.890
900.000,0.418
901.000,0.666
902.000,0.247
903.000,0.671
904.000,-0.184
905.000,-0.004
906.000,0.212
907.000,0.646
908.000,0.534
909.000,0.146
910.000,0.212
911.000,-0.192
912.000,1.146
913.000,0.604
914.000,0.533
915.000,0.899
916.000,1.139
917.000,0.351
918.000,0.303
919.000,0.378
920.000,0.581
921.000,1.170
922.000,1.974
923.000,1.023
924.000,1.529
925.000,-0.230
926.000,0.677
927.000,0.829
928.000,0.211
929.000,0.942
930.000,0.707
931.000,0.829
932.000,1.527
933.000,-0.563
934.000,-0.271
935.000,-0.331
936.000,0.467
937.000,0.705
938.000,0.559
939.000,0.608
940.000,-0.614
941.000,-0.017
942.000,-0.119
943.000,-0.092
944.000,-0.386
945.000,0.986
946.000,0.357
947.000,1.218
948.000,0.225
949.000,0.122
950.000,0.347
951.000,-0.117
952.000,-0.349
953.000,-1.354
954.000,-0.049
955.000,1.456
956.000,0.634
957.000,-0.557
958.000,-1.619
959.000,-0.028
960.000,0.614
961.000,0.113
962.000,0.496
963.000,0.789
964.000,1.880
965.000,0.215
966.000,-0.519
967.000,0.363
968.000,0.152
969.000,0.285
970.000,-0.273
971.000,0.044
972.000,-0.296
973.000,0.863
974.000,0.918
975.000,0.793
976.000,0.249
977.000,1.026
978.000,-0.641
979.000,-0.291
980.000,0.413
981.000,0.458
982.000,0.937
983.000,-0.165
984.000,1.075
985.000,1.521
986.000,0.618
987.000,0.394
988.000,1.161
989.000,0.442
990.000,0.298
991.000,-0.042
992.000,0.999
993.000,0.204
994.000,0.975
995.000,1.213
996.000,2.314
997.000,-0.898
998.000,0.672
999.000,0.806
1000.000,1.307
