24/03/2022 10:55:35
Spectrometer: USB2G54090
Integration time (ms): 150.0
Scans averaged: 15

Wavelength,Intensity
350.000,0.335
351.000,-1.042
352.000,-0.553
353.000,-1.697
354.000,-3.647
355.000,-3.866
356.000,-6.976
357.000,-10.480
358.000,-17.781
359.000,-22.133
360.000,-32.914
361.000,-44.675
362.000,-62.349
363.000,-83.825
364.000,-110.124
365.000,-141.228
366.000,-192.402
367.000,-257.699
368.000,-324.431
369.000,-390.298
370.000,-441.865
371.000,-497.967
372.000,-562.911
373.000,-610.900
374.000,-621.667
375.000,-642.981
376.000,-570.455
377.000,-523.937
378.000,-487.812
379.000,-427.435
380.000,-370.551
381.000,-299.802
382.000,-250.549
383.000,-214.033
384.000,-172.306
385.000,-141.702
386.000,-113.637
387.000,-89.197
388.000,-77.310
389.000,-61.763
390.000,-50.926
391.000,-43.002
392.000,-32.706
393.000,-28.895
394.000,-21.161
395.000,-17.949
396.000,-13.725
397.000,-10.433
398.000,-5.903
399.000,-3.639
400.000,-0.132
401.000,1.162
402.000,3.227
403.000,5.877
404.000,7.231
405.000,9.528
406.000,12.339
407.000,13.968
408.000,16.920
409.000,20.123
410.000,20.694
411.000,22.030
412.000,22.773
413.000,27.142
414.000,31.029
415.000,32.431
416.000,35.470
417.000,39.095
418.000,43.589
419.000,47.991
420.000,54.351
421.000,59.168
422.000,62.455
423.000,67.431
424.000,77.376
425.000,80.897
426.000,89.697
427.000,98.350
428.000,104.825
429.000,114.415
430.000,128.968
431.000,141.723
432.000,152.315
433.000,161.670
434.000,178.887
435.000,192.328
436.000,212.704
437.000,237.000
438.000,255.122
439.000,280.319
440.000,304.677
441.000,324.037
442.000,354.788
443.000,392.526
444.000,416.559
445.000,445.110
446.000,482.100
447.000,496.056
448.000,535.325
449.000,540.234
450.000,602.943
451.000,631.306
452.000,646.087
453.000,677.094
454.000,707.889
455.000,740.847
456.000,777.776
457.000,827.917
458.000,855.309
459.000,908.157
460.000,955.191
461.000,996.906
462.000,1048.880
463.000,1086.410
464.000,1146.052
465.000,1190.566
466.000,1259.112
467.000,1305.926
468.000,1397.721
469.000,1451.481
470.000,1491.757
471.000,1628.008
472.000,1698.350
473.000,1754.382
474.000,1833.522
475.000,1915.317
476.000,1990.354
477.000,2159.635
478.000,2222.483
479.000,2244.958
480.000,2431.772
481.000,2527.623
482.000,2587.119
483.000,2726.464
484.000,2823.561
485.000,2933.266
486.000,3043.243
487.000,3094.490
488.000,3136.585
489.000,3342.479
490.000,3389.666
491.000,3432.625
492.000,3497.916
493.000,3537.040
494.000,3651.077
495.000,3630.696
496.000,3707.702
497.000,3688.042
498.000,3673.422
499.000,3695.109
500.000,3624.792
501.000,3661.158
502.000,3690.393
503.000,3591.003
504.000,3584.998
505.000,3560.167
506.000,3544.432
507.000,3509.914
508.000,3402.987
509.000,3357.640
510.000,3253.755
511.000,3288.896
512.000,3193.614
513.000,3177.628
514.000,3064.947
515.000,3006.464
516.000,2940.922
517.000,2824.635
518.000,2820.289
519.000,2730.944
520.000,2681.536
521.000,2637.762
522.000,2567.034
523.000,2491.039
524.000,2388.702
525.000,2354.054
526.000,2260.340
527.000,2190.616
528.000,2126.424
529.000,2045.214
530.000,2025.002
531.000,1966.868
532.000,1895.318
533.000,1837.275
534.000,1791.691
535.000,1726.103
536.000,1658.064
537.000,1581.096
538.000,1556.053
539.000,1516.009
540.000,1487.055
541.000,1433.396
542.000,1363.866
543.000,1345.242
544.000,1296.426
545.000,1255.172
546.000,1199.795
547.000,1159.813
548.000,1122.565
549.000,1079.992
550.000,1041.024
551.000,1003.991
552.000,959.512
553.000,928.202
554.000,881.954
555.000,841.909
556.000,816.297
557.000,768.303
558.000,745.692
559.000,715.786
560.000,685.453
561.000,664.027
562.000,624.982
563.000,605.165
564.000,578.628
565.000,549.452
566.000,530.867
567.000,502.950
568.000,480.506
569.000,471.022
570.000,449.845
571.000,432.113
572.000,412.252
573.000,397.834
574.000,380.461
575.000,367.873
576.000,356.067
577.000,338.563
578.000,324.997
579.000,310.084
580.000,300.842
581.000,287.343
582.000,271.824
583.000,261.495
584.000,258.405
585.000,243.767
586.000,234.253
587.000,222.960
588.000,213.843
589.000,208.706
590.000,200.590
591.000,192.706
592.000,185.323
593.000,180.940
594.000,170.527
595.000,165.223
596.000,153.794
597.000,150.007
598.000,146.748
599.000,140.809
600.000,135.293
601.000,130.846
602.000,125.709
603.000,116.912
604.000,112.867
605.000,105.868
606.000,103.260
607.000,101.202
608.000,95.999
609.000,91.986
610.000,88.841
611.000,85.865
612.000,82.812
613.000,89.256
614.000,74.831
615.000,73.626
616.000,67.519
617.000,68.617
618.000,61.610
619.000,60.115
620.000,58.819
621.000,57.093
622.000,57.161
623.000,51.298
624.000,50.771
625.000,48.452
626.000,45.998
627.000,44.511
628.000,44.258
629.000,41.821
630.000,40.353
631.000,39.946
632.000,39.454
633.000,35.989
634.000,64.653
635.000,29.597
636.000,32.986
637.000,29.573
638.000,30.541
639.000,29.931
640.000,29.738
641.000,27.457
642.000,26.634
643.000,26.211
644.000,25.084
645.000,23.193
646.000,21.599
647.000,21.589
648.000,19.517
649.000,18.223
650.000,19.464
651.000,18.222
652.000,20.389
653.000,18.727
654.000,17.791
655.000,17.280
656.000,16.873
657.000,16.398
658.000,14.610
659.000,14.135
660.000,14.698
661.000,14.110
662.000,13.566
663.000,13.174
664.000,13.095
665.000,12.016
666.000,10.405
667.000,10.594
668.000,11.318
669.000,10.826
670.000,10.507
671.000,10.561
672.000,8.475
673.000,8.078
674.000,10.028
675.000,8.841
676.000,7.081
677.000,8.000
678.000,6.716
679.000,7.415
680.000,7.138
681.000,7.204
682.000,7.766
683.000,6.996
684.000,7.652
685.000,5.807
686.000,5.963
687.000,5.869
688.000,5.776
689.000,5.648
690.000,5.263
691.000,6.232
692.000,5.896
693.000,4.508
694.000,5.002
695.000,4.358
696.000,5.382
697.000,5.388
698.000,4.275
699.000,4.180
700.000,4.641
701.000,3.474
702.000,3.300
703.000,4.058
704.000,3.559
705.000,3.834
706.000,3.869
707.000,4.740
708.000,3.930
709.000,4.061
710.000,3.531
711.000,2.944
712.000,2.064
713.000,3.422
714.000,3.070
715.000,3.839
716.000,3.397
717.000,2.074
718.000,2.494
719.000,3.520
720.000,3.898
721.000,4.732
722.000,3.122
723.000,2.995
724.000,3.223
725.000,3.541
726.000,2.864
727.000,1.749
728.000,2.790
729.000,2.249
730.000,2.197
731.000,1.999
732.000,1.374
733.000,3.229
734.000,2.845
735.000,1.899
736.000,2.073
737.000,1.972
738.000,1.316
739.000,2.866
740.000,1.443
741.000,0.465
742.000,-0.087
743.000,1.020
744.000,0.953
745.000,1.819
746.000,2.754
747.000,1.994
748.000,1.661
749.000,1.567
750.000,2.143
751.000,1.769
752.000,1.025
753.000,1.869
754.000,2.000
755.000,3.066
756.000,2.836
757.000,1.263
758.000,1.184
759.000,2.194
760.000,0.902
761.000,2.263
762.000,2.118
763.000,1.796
764.000,1.917
765.000,2.801
766.000,1.902
767.000,1.258
768.000,1.687
769.000,1.963
770.000,3.346
771.000,0.268
772.000,1.089
773.000,1.230
774.000,1.422
775.000,1.230
776.000,2.395
777.000,1.682
778.000,1.284
779.000,1.903
780.000,2.435
781.000,1.658
782.000,1.388
783.000,1.635
784.000,0.988
785.000,1.176
786.000,2.301
787.000,1.540
788.000,1.531
789.000,0.509
790.000,0.269
791.000,1.758
792.000,3.006
793.000,1.496
794.000,0.505
795.000,0.817
796.000,0.890
797.000,0.100
798.000,1.001
799.000,2.200
800.000,1.271
801.000,0.674
802.000,2.353
803.000,1.470
804.000,2.102
805.000,1.655
806.000,0.639
807.000,1.679
808.000,0.741
809.000,1.312
810.000,2.448
811.000,1.550
812.000,0.977
813.000,1.331
814.000,1.412
815.000,1.407
816.000,0.442
817.000,0.165
818.000,1.318
819.000,2.346
820.000,0.687
821.000,1.157
822.000,0.066
823.000,1.333
824.000,0.644
825.000,1.342
826.000,1.647
827.000,1.340
828.000,0.927
829.000,1.830
830.000,1.943
831.000,1.720
832.000,1.942
833.000,0.525
834.000,0.519
835.000,1.618
836.000,2.573
837.000,-0.293
838.000,1.539
839.000,1.342
840.000,1.179
841.000,1.387
842.000,2.070
843.000,1.112
844.000,0.734
845.000,0.357
846.000,1.556
847.000,1.929
848.000,-0.090
849.000,-0.078
850.000,1.609
851.000,2.035
852.000,0.596
853.000,1.191
854.000,1.892
855.000,0.391
856.000,0.819
857.000,1.722
858.000,0.935
859.000,1.751
860.000,0.634
861.000,1.201
862.000,1.180
863.000,1.478
864.000,1.420
865.000,1.781
866.000,1.615
867.000,2.162
868.000,0.782
869.000,1.207
870.000,1.491
871.000,0.662
872.000,2.115
873.000,0.480
874.000,0.817
875.000,1.345
876.000,1.706
877.000,1.384
878.000,-0.228
879.000,0.481
880.000,-0.364
881.000,0.730
882.000,0.951
883.000,1.565
884.000,0.669
885.000,1.177
886.000,1.315
887.000,1.095
888.000,0.675
889.000,-0.222
890.000,1.701
891.000,-0.061
892.000,1.584
893.000,1.564
894.000,0.443
895.000,1.083
896.000,0.658
897.000,0.720
898.000,1.219
899.000,-0.070
900.000,0.488
901.000,1.341
902.000,0.046
903.000,0.998
904.000,0.543
905.000,0.086
906.000,0.224
907.000,0.834
908.000,1.133
909.000,1.121
910.000,0.127
911.000,-0.244
912.000,0.493
913.000,1.537
914.000,0.353
915.000,0.958
916.000,1.680
917.000,0.635
918.000,-0.250
919.000,0.535
920.000,0.488
921.000,1.254
922.000,2.104
923.000,1.193
924.000,1.195
925.000,-0.013
926.000,1.782
927.000,2.143
928.000,0.999
929.000,1.748
930.000,0.820
931.000,2.008
932.000,0.671
933.000,0.955
934.000,1.201
935.000,-0.136
936.000,0.857
937.000,0.433
938.000,0.421
939.000,0.807
940.000,0.254
941.000,0.559
942.000,0.037
943.000,1.675
944.000,1.392
945.000,0.879
946.000,1.501
947.000,1.272
948.000,1.146
949.000,0.314
950.000,0.755
951.000,0.652
952.000,-0.256
953.000,-1.221
954.000,0.152
955.000,1.450
956.000,1.314
957.000,0.168
958.000,-0.380
959.000,-0.156
960.000,0.280
961.000,0.376
962.000,0.632
963.000,0.544
964.000,1.930
965.000,0.493
966.000,0.448
967.000,1.118
968.000,0.937
969.000,1.444
970.000,0.330
971.000,1.367
972.000,0.498
973.000,0.734
974.000,1.747
975.000,1.039
976.000,0.964
977.000,1.793
978.000,0.146
979.000,-0.852
980.000,0.001
981.000,1.072
982.000,1.374
983.000,0.897
984.000,0.907
985.000,0.652
986.000,0.804
987.000,-1.058
988.000,0.970
989.000,0.071
990.000,1.140
991.000,0.458
992.000,0.971
993.000,0.579
994.000,0.655
995.000,1.336
996.000,2.623
997.000,-0.310
998.000,0.858
999.000,1.043
1000.000,1.798
