24/03/2022 10:33:12
Spectrometer: USB2G54090
Integration time (ms): 140.0
Scans averaged: 15

Wavelength,Intensity
350.000,1.151
351.000,-0.675
352.000,0.446
353.000,-0.035
354.000,0.444
355.000,-8.045
356.000,-1.029
357.000,-1.495
358.000,-9.918
359.000,-7.937
360.000,-9.212
361.000,-10.088
362.000,-14.662
363.000,-24.604
364.000,-32.973
365.000,-40.610
366.000,-67.058
367.000,-74.460
368.000,-97.854
369.000,-111.993
370.000,-137.039
371.000,-147.581
372.000,-164.684
373.000,-152.367
374.000,-168.930
375.000,-180.406
376.000,-152.176
377.000,-138.333
378.000,-132.242
379.000,-109.358
380.000,-92.735
381.000,-88.354
382.000,-68.218
383.000,-62.854
384.000,-42.624
385.000,-47.513
386.000,-24.491
387.000,-17.988
388.000,-25.426
389.000,-30.372
390.000,-17.095
391.000,-12.540
392.000,-11.248
393.000,-10.003
394.000,-7.633
395.000,-11.042
396.000,-4.644
397.000,-3.128
398.000,-1.249
399.000,0.557
400.000,0.624
401.000,0.572
402.000,2.948
403.000,0.788
404.000,1.381
405.000,4.636
406.000,6.362
407.000,7.229
408.000,8.145
409.000,9.656
410.000,10.206
411.000,9.154
412.000,12.404
413.000,15.074
414.000,16.229
415.000,17.508
416.000,18.870
417.000,21.401
418.000,21.430
419.000,28.473
420.000,30.614
421.000,28.892
422.000,34.182
423.000,41.110
424.000,46.920
425.000,48.441
426.000,54.844
427.000,61.846
428.000,67.702
429.000,72.349
430.000,79.061
431.000,91.027
432.000,98.447
433.000,97.788
434.000,121.472
435.000,130.667
436.000,145.340
437.000,162.169
438.000,177.679
439.000,198.648
440.000,214.205
441.000,230.142
442.000,258.019
443.000,284.746
444.000,302.986
445.000,328.442
446.000,363.537
447.000,372.421
448.000,405.888
449.000,423.384
450.000,471.669
451.000,499.941
452.000,522.232
453.000,549.549
454.000,580.918
455.000,610.900
456.000,646.542
457.000,692.823
458.000,716.202
459.000,769.985
460.000,821.467
461.000,859.329
462.000,922.797
463.000,954.691
464.000,1013.735
465.000,1057.338
466.000,1140.439
467.000,1182.917
468.000,1279.287
469.000,1330.234
470.000,1375.797
471.000,1504.090
472.000,1584.235
473.000,1637.020
474.000,1730.019
475.000,1819.490
476.000,1892.300
477.000,2053.058
478.000,2140.678
479.000,2164.690
480.000,2357.686
481.000,2444.340
482.000,2528.567
483.000,2667.052
484.000,2767.788
485.000,2873.463
486.000,2996.081
487.000,3051.762
488.000,3088.820
489.000,3309.912
490.000,3345.814
491.000,3406.472
492.000,3477.929
493.000,3515.743
494.000,3630.601
495.000,3606.893
496.000,3690.236
497.000,3678.282
498.000,3653.695
499.000,3685.770
500.000,3618.398
501.000,3660.227
502.000,3691.117
503.000,3588.195
504.000,3574.666
505.000,3552.877
506.000,3541.592
507.000,3513.575
508.000,3401.448
509.000,3350.033
510.000,3234.873
511.000,3278.515
512.000,3178.612
513.000,3167.477
514.000,3052.798
515.000,2989.992
516.000,2930.320
517.000,2803.197
518.000,2789.209
519.000,2718.411
520.000,2670.320
521.000,2614.803
522.000,2558.637
523.000,2475.722
524.000,2387.744
525.000,2347.004
526.000,2247.607
527.000,2174.115
528.000,2129.146
529.000,2030.260
530.000,2020.450
531.000,1958.910
532.000,1883.661
533.000,1836.775
534.000,1792.143
535.000,1710.508
536.000,1642.972
537.000,1569.120
538.000,1564.290
539.000,1517.531
540.000,1470.892
541.000,1432.411
542.000,1362.185
543.000,1333.549
544.000,1289.313
545.000,1252.722
546.000,1191.744
547.000,1165.911
548.000,1123.624
549.000,1078.850
550.000,1040.616
551.000,1004.304
552.000,950.712
553.000,913.742
554.000,876.800
555.000,838.388
556.000,809.107
557.000,758.676
558.000,741.617
559.000,715.953
560.000,684.765
561.000,654.384
562.000,621.983
563.000,601.626
564.000,574.397
565.000,546.207
566.000,528.460
567.000,492.787
568.000,478.346
569.000,469.880
570.000,447.854
571.000,429.621
572.000,412.567
573.000,396.710
574.000,379.780
575.000,364.744
576.000,347.745
577.000,335.603
578.000,324.921
579.000,308.173
580.000,297.567
581.000,283.503
582.000,269.742
583.000,260.470
584.000,258.533
585.000,234.832
586.000,231.534
587.000,222.849
588.000,213.467
589.000,206.301
590.000,203.083
591.000,193.280
592.000,187.977
593.000,177.151
594.000,173.830
595.000,162.493
596.000,151.764
597.000,150.376
598.000,144.695
599.000,139.626
600.000,135.844
601.000,128.284
602.000,122.266
603.000,119.499
604.000,115.137
605.000,106.882
606.000,106.398
607.000,99.732
608.000,95.902
609.000,89.562
610.000,88.141
611.000,81.453
612.000,81.705
613.000,66.226
614.000,70.892
615.000,69.442
616.000,67.201
617.000,63.014
618.000,52.406
619.000,54.151
620.000,56.016
621.000,54.811
622.000,48.052
623.000,48.203
624.000,48.751
625.000,49.323
626.000,46.891
627.000,43.590
628.000,44.190
629.000,38.425
630.000,40.213
631.000,38.988
632.000,36.565
633.000,34.904
634.000,-199.390
635.000,25.538
636.000,29.930
637.000,30.502
638.000,29.583
639.000,26.501
640.000,26.682
641.000,26.239
642.000,24.172
643.000,23.198
644.000,22.539
645.000,20.555
646.000,22.776
647.000,19.664
648.000,19.106
649.000,20.811
650.000,20.730
651.000,18.920
652.000,18.604
653.000,16.873
654.000,16.960
655.000,14.668
656.000,12.335
657.000,11.410
658.000,10.376
659.000,12.695
660.000,13.508
661.000,13.024
662.000,12.798
663.000,8.422
664.000,5.334
665.000,8.454
666.000,6.814
667.000,9.970
668.000,11.054
669.000,7.351
670.000,6.673
671.000,6.787
672.000,7.735
673.000,8.222
674.000,6.498
675.000,8.347
676.000,6.339
677.000,7.222
678.000,5.955
679.000,6.475
680.000,7.060
681.000,3.099
682.000,5.565
683.000,5.894
684.000,-1.951
685.000,5.264
686.000,5.719
687.000,6.091
688.000,5.338
689.000,1.611
690.000,4.144
691.000,4.468
692.000,4.095
693.000,3.974
694.000,5.202
695.000,2.342
696.000,2.005
697.000,3.600
698.000,3.697
699.000,4.072
700.000,-9.207
701.000,-1.599
702.000,0.010
703.000,2.010
704.000,0.618
705.000,2.272
706.000,5.033
707.000,4.590
708.000,1.987
709.000,2.755
710.000,4.010
711.000,2.689
712.000,-3.123
713.000,2.328
714.000,3.232
715.000,2.566
716.000,0.420
717.000,-1.014
718.000,3.031
719.000,-0.954
720.000,0.880
721.000,0.488
722.000,0.033
723.000,1.295
724.000,2.899
725.000,3.439
726.000,-1.235
727.000,0.077
728.000,-3.362
729.000,-0.562
730.000,2.443
731.000,1.220
732.000,2.048
733.000,-2.169
734.000,-1.855
735.000,-0.449
736.000,-7.632
737.000,-1.270
738.000,-3.932
739.000,-2.723
740.000,-0.134
741.000,-1.108
742.000,0.895
743.000,1.097
744.000,2.231
745.000,-5.505
746.000,-0.641
747.000,1.213
748.000,-5.196
749.000,0.737
750.000,-7.128
751.000,-3.352
752.000,0.065
753.000,0.113
754.000,-7.447
755.000,-0.000
756.000,0.026
757.000,-6.013
758.000,-1.636
759.000,-1.414
760.000,-7.867
761.000,-3.343
762.000,0.852
763.000,-0.364
764.000,0.466
765.000,0.726
766.000,-0.391
767.000,2.385
768.000,1.549
769.000,0.720
770.000,2.066
771.000,1.666
772.000,0.247
773.000,0.847
774.000,-1.496
775.000,-0.896
776.000,1.689
777.000,2.563
778.000,0.744
779.000,0.749
780.000,-8.227
781.000,-0.521
782.000,-1.641
783.000,-0.081
784.000,2.867
785.000,-5.778
786.000,-0.703
787.000,0.072
788.000,0.001
789.000,-4.215
790.000,0.734
791.000,-6.189
792.000,0.328
793.000,0.002
794.000,1.018
795.000,-2.511
796.000,1.226
797.000,0.147
798.000,-1.352
799.000,-3.535
800.000,-0.304
801.000,-8.661
802.000,-1.612
803.000,0.328
804.000,-0.455
805.000,-0.011
806.000,-1.920
807.000,-7.740
808.000,-2.233
809.000,0.997
810.000,0.234
811.000,0.919
812.000,-0.333
813.000,-1.831
814.000,-4.352
815.000,-0.592
816.000,-1.436
817.000,0.002
818.000,-13.889
819.000,-3.548
820.000,-2.729
821.000,-3.518
822.000,-0.077
823.000,-4.200
824.000,0.036
825.000,0.883
826.000,0.011
827.000,0.368
828.000,-1.502
829.000,-1.356
830.000,-2.774
831.000,0.151
832.000,0.134
833.000,0.264
834.000,-2.872
835.000,-1.209
836.000,-0.421
837.000,0.899
838.000,0.254
839.000,-0.206
840.000,-0.960
841.000,-0.673
842.000,0.797
843.000,-12.429
844.000,-1.941
845.000,-2.195
846.000,0.209
847.000,-1.268
848.000,0.216
849.000,-0.602
850.000,-12.280
851.000,-1.065
852.000,-1.450
853.000,-1.737
854.000,-2.047
855.000,0.206
856.000,-0.892
857.000,-4.234
858.000,-1.195
859.000,-1.251
860.000,-5.546
861.000,-8.403
862.000,-1.061
863.000,-7.693
864.000,-1.723
865.000,1.065
866.000,1.311
867.000,0.435
868.000,-2.510
869.000,0.697
870.000,1.074
871.000,1.580
872.000,-2.426
873.000,-2.053
874.000,0.259
875.000,0.009
876.000,0.761
877.000,0.141
878.000,-8.864
879.000,-4.545
880.000,-0.905
881.000,-1.129
882.000,-1.130
883.000,-2.650
884.000,-2.452
885.000,-0.135
886.000,0.278
887.000,1.016
888.000,0.989
889.000,-1.649
890.000,-1.031
891.000,0.458
892.000,0.001
893.000,-6.104
894.000,-0.271
895.000,0.739
896.000,-0.741
897.000,-1.974
898.000,-2.088
899.000,0.891
900.000,0.513
901.000,-1.211
902.000,-6.640
903.000,-5.160
904.000,-0.412
905.000,-1.314
906.000,-1.071
907.000,0.940
908.000,-3.912
909.000,-1.061
910.000,0.005
911.000,1.258
912.000,-5.791
913.000,-1.350
914.000,-4.278
915.000,-1.201
916.000,-1.563
917.000,0.565
918.000,-7.781
919.000,-3.315
920.000,-3.679
921.000,-8.787
922.000,-2.653
923.000,1.097
924.000,0.316
925.000,0.836
926.000,0.665
927.000,-3.450
928.000,-1.029
929.000,-1.253
930.000,-3.641
931.000,-0.492
932.000,-4.829
933.000,-2.255
934.000,-1.187
935.000,-1.825
936.000,-5.742
937.000,-1.668
938.000,0.243
939.000,-4.149
940.000,-0.311
941.000,-4.621
942.000,-2.594
943.000,-1.497
944.000,0.089
945.000,0.240
946.000,0.529
947.000,-1.250
948.000,-4.912
949.000,-2.631
950.000,1.035
951.000,-2.255
952.000,-5.564
953.000,-1.751
954.000,-1.135
955.000,-5.027
956.000,-2.348
957.000,-0.927
958.000,-2.655
959.000,-1.821
960.000,0.981
961.000,-1.204
962.000,1.211
963.000,-0.186
964.000,0.416
965.000,0.236
966.000,-7.868
967.000,-1.716
968.000,-6.627
969.000,1.093
970.000,1.562
971.000,0.613
972.000,-0.821
973.000,-4.389
974.000,-37.817
975.000,-3.667
976.000,-0.395
977.000,0.192
978.000,-0.454
979.000,-0.515
980.000,-0.064
981.000,0.211
982.000,-1.099
983.000,0.753
984.000,-1.218
985.000,-0.302
986.000,-0.473
987.000,-11.022
988.000,-3.132
989.000,-3.945
990.000,-7.410
991.000,-4.634
992.000,-8.560
993.000,-3.358
994.000,0.340
995.000,-0.075
996.000,2.357
997.000,0.339
998.000,-1.420
999.000,-0.239
1000.000,1.125
