24/03/2022 10:09:02
Spectrometer: USB2G54090
Integration time (ms): 850.0
Scans averaged: 10

Wavelength,Intensity
350.000,-0.096
351.000,1.217
352.000,-0.610
353.000,-0.723
354.000,-3.110
355.000,-2.150
356.000,-0.058
357.000,-1.539
358.000,-3.415
359.000,-4.828
360.000,-5.225
361.000,-5.872
362.000,-8.903
363.000,-11.683
364.000,-15.013
365.000,-18.936
366.000,-23.969
367.000,-29.855
368.000,-39.144
369.000,-50.234
370.000,-53.199
371.000,-45.062
372.000,-75.027
373.000,-61.516
374.000,-52.761
375.000,-61.366
376.000,-51.158
377.000,-47.562
378.000,-40.341
379.000,-34.694
380.000,-31.879
381.000,-26.677
382.000,-21.476
383.000,-17.304
384.000,-14.274
385.000,-13.007
386.000,-40.193
387.000,-55.635
388.000,-4.809
389.000,-4.722
390.000,-4.159
391.000,-0.909
392.000,-2.808
393.000,-1.611
394.000,-2.554
395.000,-1.162
396.000,-0.788
397.000,0.175
398.000,0.611
399.000,1.682
400.000,0.569
401.000,2.173
402.000,-0.088
403.000,-0.576
404.000,1.051
405.000,1.590
406.000,3.562
407.000,2.086
408.000,3.224
409.000,2.058
410.000,2.981
411.000,3.522
412.000,5.044
413.000,4.710
414.000,3.445
415.000,5.439
416.000,4.995
417.000,3.055
418.000,4.804
419.000,4.460
420.000,6.272
421.000,7.943
422.000,5.356
423.000,5.936
424.000,7.922
425.000,5.962
426.000,7.021
427.000,6.210
428.000,8.226
429.000,7.248
430.000,9.495
431.000,7.905
432.000,9.344
433.000,11.014
434.000,10.049
435.000,10.825
436.000,10.949
437.000,10.976
438.000,13.481
439.000,12.612
440.000,15.768
441.000,14.745
442.000,15.780
443.000,17.063
444.000,16.795
445.000,20.145
446.000,20.751
447.000,23.008
448.000,25.055
449.000,26.110
450.000,28.658
451.000,30.849
452.000,32.353
453.000,35.116
454.000,36.669
455.000,41.659
456.000,45.626
457.000,48.088
458.000,49.553
459.000,57.196
460.000,66.110
461.000,66.098
462.000,78.253
463.000,81.784
464.000,96.277
465.000,105.434
466.000,120.926
467.000,131.627
468.000,147.880
469.000,163.170
470.000,181.772
471.000,212.859
472.000,224.952
473.000,223.233
474.000,274.654
475.000,304.583
476.000,333.722
477.000,413.533
478.000,421.886
479.000,449.389
480.000,516.618
481.000,570.996
482.000,621.805
483.000,697.219
484.000,771.791
485.000,832.514
486.000,923.789
487.000,991.227
488.000,1052.930
489.000,1202.806
490.000,1271.920
491.000,1379.497
492.000,1469.989
493.000,1564.357
494.000,1710.793
495.000,1774.169
496.000,1924.440
497.000,2013.838
498.000,2107.995
499.000,2214.077
500.000,2300.926
501.000,2414.563
502.000,2563.653
503.000,2606.393
504.000,2717.325
505.000,2823.795
506.000,2927.826
507.000,3012.376
508.000,3045.327
509.000,3121.999
510.000,3165.935
511.000,3303.491
512.000,3337.710
513.000,3457.277
514.000,3444.357
515.000,3523.458
516.000,3549.283
517.000,3540.372
518.000,3651.832
519.000,3649.048
520.000,3684.557
521.000,3732.153
522.000,3767.692
523.000,3764.342
524.000,3727.642
525.000,3776.537
526.000,3704.894
527.000,3694.815
528.000,3700.153
529.000,3668.337
530.000,3716.615
531.000,3675.962
532.000,3636.124
533.000,3632.264
534.000,3630.932
535.000,3550.539
536.000,3487.820
537.000,3427.766
538.000,3439.370
539.000,3403.810
540.000,3392.452
541.000,3343.882
542.000,3241.956
543.000,3252.000
544.000,3207.349
545.000,3162.550
546.000,3074.023
547.000,3044.316
548.000,2973.093
549.000,2922.483
550.000,2855.818
551.000,2782.820
552.000,2700.072
553.000,2648.744
554.000,2560.586
555.000,2474.481
556.000,2421.776
557.000,2316.863
558.000,2287.213
559.000,2217.239
560.000,2145.547
561.000,2092.061
562.000,1997.563
563.000,1961.959
564.000,1888.064
565.000,1824.755
566.000,1780.521
567.000,1697.838
568.000,1640.288
569.000,1630.184
570.000,1566.370
571.000,1509.276
572.000,1463.608
573.000,1423.965
574.000,1388.288
575.000,1331.561
576.000,1309.056
577.000,1260.917
578.000,1227.544
579.000,1184.630
580.000,1147.040
581.000,1106.218
582.000,1059.878
583.000,1027.911
584.000,1021.348
585.000,981.060
586.000,940.524
587.000,908.609
588.000,878.064
589.000,857.001
590.000,836.343
591.000,806.154
592.000,787.012
593.000,756.551
594.000,731.021
595.000,703.262
596.000,667.686
597.000,662.950
598.000,630.700
599.000,618.181
600.000,595.057
601.000,570.727
602.000,551.630
603.000,530.467
604.000,513.256
605.000,489.528
606.000,474.379
607.000,448.302
608.000,437.888
609.000,422.777
610.000,407.671
611.000,391.245
612.000,378.434
613.000,368.309
614.000,344.764
615.000,356.257
616.000,324.190
617.000,313.224
618.000,296.262
619.000,287.841
620.000,273.618
621.000,272.814
622.000,292.167
623.000,244.531
624.000,244.213
625.000,231.365
626.000,230.681
627.000,217.551
628.000,210.089
629.000,201.752
630.000,196.802
631.000,189.191
632.000,186.047
633.000,175.611
634.000,209.244
635.000,156.192
636.000,157.730
637.000,153.866
638.000,150.816
639.000,143.901
640.000,134.613
641.000,135.748
642.000,127.648
643.000,122.144
644.000,118.259
645.000,116.749
646.000,108.317
647.000,107.823
648.000,104.508
649.000,103.575
650.000,95.858
651.000,93.591
652.000,92.189
653.000,86.761
654.000,81.850
655.000,79.497
656.000,81.188
657.000,73.783
658.000,69.032
659.000,75.827
660.000,67.674
661.000,65.582
662.000,63.278
663.000,75.814
664.000,58.311
665.000,57.048
666.000,62.505
667.000,53.908
668.000,52.495
669.000,49.114
670.000,48.181
671.000,51.210
672.000,40.838
673.000,39.473
674.000,41.472
675.000,39.396
676.000,36.159
677.000,34.784
678.000,33.702
679.000,35.425
680.000,34.411
681.000,29.523
682.000,29.695
683.000,28.589
684.000,29.546
685.000,23.024
686.000,24.302
687.000,24.306
688.000,22.044
689.000,20.993
690.000,22.602
691.000,23.120
692.000,19.705
693.000,20.515
694.000,19.001
695.000,18.813
696.000,19.879
697.000,17.195
698.000,17.285
699.000,15.841
700.000,18.309
701.000,15.712
702.000,13.627
703.000,13.600
704.000,13.915
705.000,10.533
706.000,12.957
707.000,12.894
708.000,12.596
709.000,11.609
710.000,10.212
711.000,10.472
712.000,10.982
713.000,8.586
714.000,7.706
715.000,7.527
716.000,7.935
717.000,6.859
718.000,7.828
719.000,5.461
720.000,8.537
721.000,7.275
722.000,6.710
723.000,7.409
724.000,6.482
725.000,7.247
726.000,4.107
727.000,5.077
728.000,8.016
729.000,3.924
730.000,6.089
731.000,5.009
732.000,3.157
733.000,4.180
734.000,3.768
735.000,2.883
736.000,5.488
737.000,3.268
738.000,5.561
739.000,2.258
740.000,3.247
741.000,3.554
742.000,2.599
743.000,3.444
744.000,4.224
745.000,3.322
746.000,1.439
747.000,2.492
748.000,1.908
749.000,0.474
750.000,2.980
751.000,3.339
752.000,1.539
753.000,2.239
754.000,4.239
755.000,2.287
756.000,1.665
757.000,1.337
758.000,0.930
759.000,0.854
760.000,0.599
761.000,0.618
762.000,0.907
763.000,2.045
764.000,0.999
765.000,1.702
766.000,0.159
767.000,0.767
768.000,1.624
769.000,2.231
770.000,0.326
771.000,0.503
772.000,-0.783
773.000,-0.460
774.000,1.583
775.000,-1.109
776.000,-1.613
777.000,-0.368
778.000,-0.291
779.000,-0.866
780.000,-0.267
781.000,0.133
782.000,-1.223
783.000,0.165
784.000,0.397
785.000,0.721
786.000,-0.929
787.000,0.233
788.000,-0.069
789.000,-1.731
790.000,-0.295
791.000,0.204
792.000,-0.642
793.000,1.283
794.000,-0.629
795.000,-2.380
796.000,-0.358
797.000,-0.748
798.000,-0.500
799.000,-1.213
800.000,0.028
801.000,0.086
802.000,-1.176
803.000,-0.804
804.000,-1.995
805.000,-1.641
806.000,-1.028
807.000,0.102
808.000,-0.747
809.000,-0.003
810.000,-1.576
811.000,-1.310
812.000,-0.131
813.000,-0.558
814.000,-0.510
815.000,1.160
816.000,0.273
817.000,-0.698
818.000,0.210
819.000,-0.667
820.000,-1.155
821.000,-0.995
822.000,-2.806
823.000,-2.200
824.000,-2.745
825.000,-0.638
826.000,-1.954
827.000,-1.399
828.000,-0.809
829.000,-0.984
830.000,0.982
831.000,-0.583
832.000,-1.490
833.000,-1.727
834.000,-0.574
835.000,-3.395
836.000,-0.707
837.000,-0.724
838.000,-1.155
839.000,-1.616
840.000,-2.049
841.000,-2.757
842.000,-1.887
843.000,-0.266
844.000,-1.998
845.000,-1.043
846.000,-2.333
847.000,-1.675
848.000,-1.851
849.000,-2.949
850.000,-1.343
851.000,-0.768
852.000,-1.815
853.000,-0.446
854.000,-0.951
855.000,-1.426
856.000,-0.879
857.000,-2.865
858.000,-2.301
859.000,-1.315
860.000,-1.484
861.000,-0.862
862.000,-0.629
863.000,-1.142
864.000,-2.644
865.000,-0.760
866.000,-1.005
867.000,-1.143
868.000,-0.898
869.000,-0.910
870.000,-0.194
871.000,-1.081
872.000,-1.034
873.000,-2.005
874.000,-0.793
875.000,-1.851
876.000,-1.871
877.000,-2.745
878.000,-0.999
879.000,-3.329
880.000,-0.679
881.000,-1.871
882.000,0.781
883.000,-0.907
884.000,-1.894
885.000,-1.230
886.000,-1.344
887.000,-1.976
888.000,-1.342
889.000,-2.773
890.000,-0.495
891.000,-0.437
892.000,-1.258
893.000,-3.123
894.000,-1.474
895.000,-2.346
896.000,-2.756
897.000,-1.925
898.000,-0.566
899.000,-2.094
900.000,-1.292
901.000,-1.684
902.000,-1.502
903.000,-0.822
904.000,-1.311
905.000,-1.101
906.000,-2.500
907.000,-2.104
908.000,-1.580
909.000,-0.999
910.000,-0.929
911.000,-1.816
912.000,-1.572
913.000,-2.091
914.000,-2.800
915.000,-2.081
916.000,-1.873
917.000,-3.240
918.000,-0.845
919.000,-1.586
920.000,-1.730
921.000,-1.978
922.000,-1.176
923.000,-3.975
924.000,-1.480
925.000,-1.065
926.000,-2.642
927.000,-3.188
928.000,-1.769
929.000,-1.491
930.000,-2.612
931.000,-2.805
932.000,-1.557
933.000,-3.775
934.000,-1.722
935.000,-1.315
936.000,-1.957
937.000,-0.762
938.000,-1.479
939.000,-1.093
940.000,-1.209
941.000,-2.123
942.000,-0.486
943.000,-0.113
944.000,-3.172
945.000,-2.821
946.000,-3.375
947.000,-1.193
948.000,-0.430
949.000,-1.521
950.000,-1.653
951.000,-2.114
952.000,-2.047
953.000,-2.330
954.000,-1.650
955.000,-0.363
956.000,-0.715
957.000,-1.965
958.000,-0.346
959.000,-1.828
960.000,-1.891
961.000,-0.842
962.000,-2.594
963.000,-2.858
964.000,-3.704
965.000,-1.525
966.000,-2.675
967.000,-1.512
968.000,-1.623
969.000,-3.392
970.000,-3.326
971.000,-1.242
972.000,-2.230
973.000,-4.648
974.000,-1.059
975.000,-0.617
976.000,-2.740
977.000,-1.954
978.000,-0.923
979.000,-3.848
980.000,-2.760
981.000,-1.684
982.000,-1.764
983.000,-3.183
984.000,-2.423
985.000,-1.053
986.000,-1.942
987.000,-2.814
988.000,-1.366
989.000,-0.997
990.000,-2.607
991.000,-1.509
992.000,-0.191
993.000,-0.480
994.000,-0.895
995.000,-2.639
996.000,-1.867
997.000,-1.187
998.000,-1.956
999.000,-2.330
1000.000,-3.296
