24/03/2022 10:34:23
Spectrometer: USB2G54090
Integration time (ms): 140.0
Scans averaged: 15

Wavelength,Intensity
350.000,0.706
351.000,-1.403
352.000,-0.409
353.000,-0.158
354.000,0.201
355.000,-8.112
356.000,-1.206
357.000,-1.737
358.000,-11.148
359.000,-8.308
360.000,-10.471
361.000,-10.432
362.000,-15.917
363.000,-26.801
364.000,-36.461
365.000,-44.297
366.000,-71.400
367.000,-81.029
368.000,-105.014
369.000,-121.313
370.000,-146.315
371.000,-158.355
372.000,-177.481
373.000,-165.557
374.000,-182.894
375.000,-194.596
376.000,-166.776
377.000,-151.011
378.000,-143.615
379.000,-119.677
380.000,-101.173
381.000,-94.959
382.000,-74.012
383.000,-68.925
384.000,-48.756
385.000,-47.716
386.000,-27.838
387.000,-19.964
388.000,-27.503
389.000,-31.589
390.000,-19.562
391.000,-14.875
392.000,-13.116
393.000,-10.814
394.000,-9.278
395.000,-12.212
396.000,-6.068
397.000,-3.846
398.000,-1.654
399.000,-0.067
400.000,-0.094
401.000,0.529
402.000,3.208
403.000,0.140
404.000,1.115
405.000,4.005
406.000,6.293
407.000,6.792
408.000,6.109
409.000,8.523
410.000,10.067
411.000,9.792
412.000,13.131
413.000,13.342
414.000,15.948
415.000,17.208
416.000,18.860
417.000,21.889
418.000,22.050
419.000,27.685
420.000,30.048
421.000,28.586
422.000,33.563
423.000,40.745
424.000,46.740
425.000,48.554
426.000,55.077
427.000,62.648
428.000,69.202
429.000,73.819
430.000,82.133
431.000,89.803
432.000,101.940
433.000,99.935
434.000,123.167
435.000,132.624
436.000,145.101
437.000,160.431
438.000,179.364
439.000,200.294
440.000,214.648
441.000,229.337
442.000,257.927
443.000,284.768
444.000,301.599
445.000,331.203
446.000,361.250
447.000,376.251
448.000,410.475
449.000,425.677
450.000,475.285
451.000,503.464
452.000,518.979
453.000,550.869
454.000,576.694
455.000,609.112
456.000,648.373
457.000,695.937
458.000,721.732
459.000,775.465
460.000,821.606
461.000,858.881
462.000,922.162
463.000,963.487
464.000,1011.342
465.000,1057.781
466.000,1142.099
467.000,1182.781
468.000,1282.599
469.000,1330.180
470.000,1378.001
471.000,1508.810
472.000,1584.265
473.000,1640.835
474.000,1732.592
475.000,1826.029
476.000,1898.093
477.000,2053.003
478.000,2136.709
479.000,2172.245
480.000,2363.328
481.000,2451.694
482.000,2530.040
483.000,2665.712
484.000,2761.931
485.000,2865.905
486.000,3001.688
487.000,3054.981
488.000,3098.674
489.000,3317.458
490.000,3343.541
491.000,3417.668
492.000,3479.644
493.000,3508.975
494.000,3646.767
495.000,3602.234
496.000,3697.100
497.000,3688.996
498.000,3665.808
499.000,3685.582
500.000,3620.276
501.000,3663.633
502.000,3693.431
503.000,3587.493
504.000,3585.490
505.000,3558.543
506.000,3551.813
507.000,3507.988
508.000,3388.021
509.000,3345.294
510.000,3262.386
511.000,3274.092
512.000,3178.330
513.000,3173.651
514.000,3054.114
515.000,2990.633
516.000,2930.409
517.000,2808.722
518.000,2784.658
519.000,2720.667
520.000,2666.338
521.000,2613.724
522.000,2561.956
523.000,2479.583
524.000,2378.958
525.000,2343.342
526.000,2249.439
527.000,2182.669
528.000,2125.021
529.000,2038.075
530.000,2025.883
531.000,1956.205
532.000,1887.324
533.000,1832.172
534.000,1793.522
535.000,1718.329
536.000,1648.589
537.000,1581.496
538.000,1560.933
539.000,1515.147
540.000,1475.973
541.000,1425.850
542.000,1360.257
543.000,1332.450
544.000,1292.699
545.000,1253.865
546.000,1191.114
547.000,1160.702
548.000,1115.087
549.000,1077.720
550.000,1039.275
551.000,1003.991
552.000,956.081
553.000,918.340
554.000,877.613
555.000,837.101
556.000,810.607
557.000,755.603
558.000,739.674
559.000,715.348
560.000,683.810
561.000,654.913
562.000,623.357
563.000,596.012
564.000,577.085
565.000,544.958
566.000,531.729
567.000,492.540
568.000,475.685
569.000,471.495
570.000,450.170
571.000,429.272
572.000,410.587
573.000,393.738
574.000,382.783
575.000,366.739
576.000,349.967
577.000,332.575
578.000,326.144
579.000,311.026
580.000,296.193
581.000,285.784
582.000,268.731
583.000,263.611
584.000,256.428
585.000,239.480
586.000,234.992
587.000,224.873
588.000,213.900
589.000,207.487
590.000,202.423
591.000,192.752
592.000,186.063
593.000,178.634
594.000,173.500
595.000,163.954
596.000,152.895
597.000,150.927
598.000,145.908
599.000,139.093
600.000,135.088
601.000,125.615
602.000,123.098
603.000,120.921
604.000,112.582
605.000,109.929
606.000,105.505
607.000,99.340
608.000,95.738
609.000,89.873
610.000,87.321
611.000,82.908
612.000,81.523
613.000,71.345
614.000,70.572
615.000,70.780
616.000,65.673
617.000,60.525
618.000,52.374
619.000,54.245
620.000,56.162
621.000,52.895
622.000,48.297
623.000,45.772
624.000,50.028
625.000,48.630
626.000,46.536
627.000,43.518
628.000,42.817
629.000,39.538
630.000,40.701
631.000,38.204
632.000,36.807
633.000,34.084
634.000,-185.744
635.000,25.995
636.000,28.317
637.000,30.086
638.000,29.984
639.000,26.685
640.000,26.359
641.000,25.104
642.000,23.583
643.000,22.880
644.000,22.012
645.000,20.123
646.000,22.302
647.000,19.785
648.000,19.749
649.000,19.807
650.000,21.179
651.000,18.092
652.000,18.389
653.000,16.494
654.000,17.249
655.000,15.303
656.000,11.593
657.000,11.533
658.000,9.677
659.000,11.854
660.000,12.820
661.000,13.143
662.000,13.743
663.000,7.179
664.000,5.004
665.000,6.613
666.000,6.716
667.000,9.925
668.000,10.482
669.000,7.846
670.000,5.388
671.000,6.575
672.000,7.550
673.000,7.306
674.000,6.601
675.000,8.171
676.000,6.391
677.000,6.101
678.000,6.097
679.000,6.597
680.000,6.661
681.000,3.834
682.000,5.382
683.000,4.605
684.000,-2.626
685.000,5.232
686.000,5.468
687.000,4.404
688.000,5.145
689.000,2.139
690.000,4.348
691.000,3.521
692.000,2.674
693.000,3.894
694.000,5.935
695.000,1.897
696.000,2.535
697.000,3.385
698.000,3.621
699.000,3.429
700.000,-9.220
701.000,-2.268
702.000,-0.759
703.000,2.574
704.000,1.267
705.000,2.188
706.000,3.768
707.000,3.128
708.000,2.018
709.000,2.626
710.000,3.943
711.000,3.241
712.000,-3.889
713.000,2.003
714.000,3.633
715.000,1.716
716.000,-0.225
717.000,-1.380
718.000,3.329
719.000,-0.673
720.000,0.251
721.000,-0.743
722.000,-0.580
723.000,-0.033
724.000,2.637
725.000,2.590
726.000,-0.705
727.000,0.140
728.000,-3.759
729.000,-0.128
730.000,1.644
731.000,0.742
732.000,1.477
733.000,-1.481
734.000,-3.720
735.000,-0.390
736.000,-7.238
737.000,-0.798
738.000,-5.775
739.000,-3.497
740.000,-0.253
741.000,-1.559
742.000,-0.817
743.000,1.309
744.000,1.637
745.000,-6.395
746.000,-0.161
747.000,1.685
748.000,-3.701
749.000,0.984
750.000,-7.338
751.000,-4.942
752.000,-0.715
753.000,-0.387
754.000,-8.078
755.000,-0.287
756.000,1.175
757.000,-6.388
758.000,-1.536
759.000,-0.781
760.000,-8.013
761.000,-5.028
762.000,0.278
763.000,-1.081
764.000,0.764
765.000,0.236
766.000,-0.292
767.000,1.812
768.000,0.989
769.000,0.353
770.000,0.823
771.000,1.068
772.000,0.520
773.000,0.884
774.000,-1.260
775.000,-1.874
776.000,0.639
777.000,2.223
778.000,-0.129
779.000,1.325
780.000,-8.025
781.000,-0.519
782.000,-0.915
783.000,0.186
784.000,1.535
785.000,-6.965
786.000,-1.182
787.000,-1.431
788.000,-0.859
789.000,-3.976
790.000,0.199
791.000,-6.397
792.000,0.754
793.000,-0.230
794.000,0.595
795.000,-2.080
796.000,1.289
797.000,-0.212
798.000,-0.477
799.000,-3.857
800.000,-1.202
801.000,-7.864
802.000,-1.922
803.000,-0.479
804.000,-0.702
805.000,-0.749
806.000,-3.207
807.000,-8.630
808.000,-2.546
809.000,-0.324
810.000,0.894
811.000,1.130
812.000,-0.349
813.000,-1.414
814.000,-4.337
815.000,-0.716
816.000,-2.220
817.000,-1.150
818.000,-12.851
819.000,-4.628
820.000,-1.531
821.000,-3.664
822.000,0.078
823.000,-3.733
824.000,-0.098
825.000,0.178
826.000,0.256
827.000,-0.180
828.000,-1.353
829.000,-1.046
830.000,-2.357
831.000,-0.648
832.000,-0.276
833.000,-0.896
834.000,-3.037
835.000,-2.183
836.000,-1.059
837.000,0.557
838.000,0.288
839.000,-0.548
840.000,-1.935
841.000,-0.842
842.000,-0.657
843.000,-12.626
844.000,-2.743
845.000,-3.088
846.000,-0.155
847.000,-0.617
848.000,-0.829
849.000,-1.423
850.000,-11.566
851.000,-1.688
852.000,-1.924
853.000,-3.608
854.000,-1.627
855.000,-0.515
856.000,-1.271
857.000,-4.331
858.000,-1.126
859.000,-0.552
860.000,-5.550
861.000,-7.952
862.000,-1.552
863.000,-8.591
864.000,-1.630
865.000,0.169
866.000,1.482
867.000,0.009
868.000,-1.001
869.000,0.231
870.000,0.545
871.000,0.557
872.000,-4.072
873.000,-1.938
874.000,0.713
875.000,0.058
876.000,0.479
877.000,0.764
878.000,-8.459
879.000,-3.778
880.000,-0.703
881.000,-1.182
882.000,-1.650
883.000,-3.000
884.000,-2.699
885.000,1.961
886.000,0.226
887.000,0.906
888.000,-0.864
889.000,-0.830
890.000,-0.359
891.000,-0.162
892.000,0.149
893.000,-6.367
894.000,0.026
895.000,0.751
896.000,-0.863
897.000,-1.766
898.000,-1.917
899.000,-0.420
900.000,0.098
901.000,0.299
902.000,-6.597
903.000,-5.794
904.000,-0.346
905.000,-2.095
906.000,-1.968
907.000,1.483
908.000,-4.616
909.000,-1.870
910.000,-0.781
911.000,0.245
912.000,-5.858
913.000,-1.819
914.000,-5.866
915.000,-2.452
916.000,-1.699
917.000,0.739
918.000,-7.360
919.000,-3.697
920.000,-5.144
921.000,-9.381
922.000,-2.344
923.000,-0.552
924.000,-0.022
925.000,0.911
926.000,0.502
927.000,-2.955
928.000,-1.125
929.000,-2.134
930.000,-3.217
931.000,-1.363
932.000,-4.415
933.000,-2.367
934.000,-2.025
935.000,-2.511
936.000,-6.596
937.000,-2.639
938.000,0.976
939.000,-5.018
940.000,-1.239
941.000,-5.811
942.000,-2.236
943.000,-1.980
944.000,0.582
945.000,-0.558
946.000,0.938
947.000,-0.229
948.000,-4.968
949.000,-2.170
950.000,-0.113
951.000,-1.659
952.000,-5.463
953.000,-1.922
954.000,0.225
955.000,-5.442
956.000,-3.129
957.000,-2.711
958.000,-3.385
959.000,-2.375
960.000,1.035
961.000,-0.679
962.000,0.684
963.000,-0.248
964.000,-0.173
965.000,0.940
966.000,-8.110
967.000,-1.443
968.000,-8.031
969.000,-0.757
970.000,0.673
971.000,0.199
972.000,-1.291
973.000,-4.358
974.000,-38.865
975.000,-3.960
976.000,-0.733
977.000,0.963
978.000,-0.066
979.000,0.950
980.000,0.403
981.000,1.183
982.000,-1.348
983.000,-1.188
984.000,-1.035
985.000,0.207
986.000,-1.315
987.000,-11.710
988.000,-3.726
989.000,-3.863
990.000,-7.867
991.000,-4.492
992.000,-8.619
993.000,-4.389
994.000,-1.257
995.000,-0.791
996.000,0.671
997.000,-0.120
998.000,-0.887
999.000,-1.102
1000.000,1.041
