08/03/2022 10:41:49
Spectrometer: USB2G54089
Integration time (ms): 150.0
Scans averaged: 20

Wavelength,Intensity
350.000,0.794
351.000,-0.248
352.000,-2.162
353.000,0.319
354.000,0.379
355.000,-0.281
356.000,1.679
357.000,-0.754
358.000,-1.348
359.000,-2.423
360.000,-1.295
361.000,-4.809
362.000,-5.983
363.000,-5.327
364.000,-7.299
365.000,-10.148
366.000,-10.633
367.000,-10.588
368.000,-16.012
369.000,-14.071
370.000,-16.971
371.000,-17.196
372.000,-20.207
373.000,-17.648
374.000,-15.545
375.000,-10.631
376.000,-9.268
377.000,-8.050
378.000,-7.296
379.000,-6.888
380.000,-4.256
381.000,-2.270
382.000,-6.125
383.000,-1.442
384.000,-0.160
385.000,-0.216
386.000,0.849
387.000,0.342
388.000,1.292
389.000,-0.035
390.000,-0.522
391.000,2.516
392.000,0.975
393.000,0.934
394.000,2.867
395.000,3.235
396.000,2.966
397.000,6.132
398.000,1.718
399.000,5.670
400.000,3.662
401.000,2.255
402.000,3.651
403.000,4.344
404.000,3.503
405.000,6.078
406.000,3.697
407.000,5.753
408.000,5.882
409.000,8.903
410.000,7.301
411.000,6.746
412.000,7.749
413.000,7.046
414.000,10.753
415.000,11.061
416.000,11.667
417.000,13.155
418.000,12.238
419.000,15.786
420.000,13.784
421.000,16.141
422.000,19.008
423.000,19.677
424.000,22.308
425.000,25.264
426.000,25.445
427.000,27.757
428.000,32.500
429.000,38.295
430.000,41.273
431.000,43.155
432.000,48.277
433.000,54.815
434.000,58.892
435.000,66.260
436.000,70.762
437.000,80.334
438.000,87.684
439.000,94.697
440.000,100.728
441.000,109.934
442.000,120.471
443.000,128.247
444.000,138.875
445.000,150.762
446.000,161.952
447.000,173.243
448.000,180.386
449.000,196.394
450.000,211.591
451.000,221.151
452.000,242.655
453.000,256.732
454.000,274.249
455.000,292.973
456.000,315.757
457.000,334.053
458.000,350.833
459.000,376.166
460.000,396.312
461.000,422.581
462.000,448.589
463.000,470.127
464.000,502.112
465.000,529.328
466.000,552.049
467.000,583.301
468.000,614.541
469.000,644.943
470.000,670.657
471.000,710.509
472.000,740.287
473.000,774.099
474.000,811.404
475.000,860.842
476.000,901.292
477.000,937.299
478.000,985.264
479.000,1032.549
480.000,1088.039
481.000,1167.027
482.000,1224.656
483.000,1247.004
484.000,1315.825
485.000,1350.882
486.000,1445.138
487.000,1519.585
488.000,1559.322
489.000,1594.665
490.000,1644.476
491.000,1741.058
492.000,1740.010
493.000,1773.286
494.000,1805.245
495.000,1818.122
496.000,1818.085
497.000,1858.194
498.000,1846.199
499.000,1869.778
500.000,1823.540
501.000,1845.718
502.000,1826.053
503.000,1803.724
504.000,1772.235
505.000,1790.169
506.000,1767.425
507.000,1721.134
508.000,1687.811
509.000,1673.497
510.000,1638.014
511.000,1635.158
512.000,1594.469
513.000,1571.934
514.000,1550.358
515.000,1514.751
516.000,1477.841
517.000,1458.193
518.000,1430.913
519.000,1398.762
520.000,1369.376
521.000,1348.062
522.000,1302.451
523.000,1273.776
524.000,1238.199
525.000,1207.333
526.000,1174.149
527.000,1131.410
528.000,1101.337
529.000,1074.256
530.000,1046.154
531.000,1017.362
532.000,989.017
533.000,950.523
534.000,924.271
535.000,901.084
536.000,877.251
537.000,846.413
538.000,818.555
539.000,797.188
540.000,773.697
541.000,739.726
542.000,723.681
543.000,699.310
544.000,670.635
545.000,651.780
546.000,630.524
547.000,606.989
548.000,578.751
549.000,559.086
550.000,543.616
551.000,520.573
552.000,505.693
553.000,489.405
554.000,472.839
555.000,444.836
556.000,437.642
557.000,416.220
558.000,403.958
559.000,387.473
560.000,369.473
561.000,361.146
562.000,341.417
563.000,332.132
564.000,322.359
565.000,306.680
566.000,292.701
567.000,282.724
568.000,268.108
569.000,262.791
570.000,250.110
571.000,237.402
572.000,230.266
573.000,221.128
574.000,213.769
575.000,204.134
576.000,193.090
577.000,184.793
578.000,180.949
579.000,171.846
580.000,163.390
581.000,161.552
582.000,152.606
583.000,144.480
584.000,137.855
585.000,134.054
586.000,128.471
587.000,121.630
588.000,119.030
589.000,116.512
590.000,112.024
591.000,104.902
592.000,100.360
593.000,97.695
594.000,94.344
595.000,88.311
596.000,86.156
597.000,84.100
598.000,77.951
599.000,78.214
600.000,73.908
601.000,70.649
602.000,68.825
603.000,67.029
604.000,64.451
605.000,62.973
606.000,56.824
607.000,56.963
608.000,53.398
609.000,52.045
610.000,51.538
611.000,50.458
612.000,44.687
613.000,45.922
614.000,42.967
615.000,39.263
616.000,39.827
617.000,38.201
618.000,37.412
619.000,36.270
620.000,36.293
621.000,32.594
622.000,31.783
623.000,29.712
624.000,29.865
625.000,29.081
626.000,29.656
627.000,26.350
628.000,25.653
629.000,26.062
630.000,21.753
631.000,20.680
632.000,21.619
633.000,20.619
634.000,20.008
635.000,19.684
636.000,20.146
637.000,17.137
638.000,17.259
639.000,16.803
640.000,15.250
641.000,15.323
642.000,13.540
643.000,13.958
644.000,14.038
645.000,11.507
646.000,12.585
647.000,12.041
648.000,11.750
649.000,10.981
650.000,10.964
651.000,11.125
652.000,9.341
653.000,9.472
654.000,9.575
655.000,10.251
656.000,8.438
657.000,8.519
658.000,7.866
659.000,9.454
660.000,6.166
661.000,6.509
662.000,5.306
663.000,5.378
664.000,6.611
665.000,6.990
666.000,6.739
667.000,7.160
668.000,6.157
669.000,5.628
670.000,3.216
671.000,5.213
672.000,4.835
673.000,6.178
674.000,5.265
675.000,5.930
676.000,5.854
677.000,3.616
678.000,2.584
679.000,3.031
680.000,1.962
681.000,2.638
682.000,3.139
683.000,2.746
684.000,2.572
685.000,2.730
686.000,3.918
687.000,1.761
688.000,3.676
689.000,2.457
690.000,1.444
691.000,1.715
692.000,1.418
693.000,3.959
694.000,3.688
695.000,1.428
696.000,0.558
697.000,3.231
698.000,1.867
699.000,0.313
700.000,2.783
701.000,1.638
702.000,2.773
703.000,0.339
704.000,1.912
705.000,2.653
706.000,0.556
707.000,2.434
708.000,1.129
709.000,0.269
710.000,1.285
711.000,2.571
712.000,0.953
713.000,2.099
714.000,4.645
715.000,-0.475
716.000,2.165
717.000,0.164
718.000,-2.073
719.000,-0.001
720.000,1.059
721.000,1.888
722.000,1.795
723.000,0.698
724.000,-0.681
725.000,-0.435
726.000,0.255
727.000,0.503
728.000,0.128
729.000,0.378
730.000,-0.330
731.000,1.852
732.000,-0.109
733.000,-0.228
734.000,1.218
735.000,0.432
736.000,0.423
737.000,-1.590
738.000,-0.260
739.000,0.939
740.000,-0.239
741.000,-0.172
742.000,1.042
743.000,2.103
744.000,-1.196
745.000,1.941
746.000,-0.926
747.000,0.450
748.000,0.490
749.000,-0.055
750.000,-0.291
751.000,-0.856
752.000,0.340
753.000,-2.014
754.000,-0.086
755.000,0.166
756.000,0.224
757.000,-1.043
758.000,0.087
759.000,0.322
760.000,2.040
761.000,-0.104
762.000,0.568
763.000,-2.535
764.000,0.816
765.000,0.033
766.000,-3.407
767.000,0.242
768.000,-0.008
769.000,0.854
770.000,0.719
771.000,-0.708
772.000,-0.451
773.000,0.104
774.000,3.259
775.000,1.981
776.000,-0.873
777.000,-0.827
778.000,-0.503
779.000,-1.202
780.000,-0.030
781.000,1.814
782.000,-0.592
783.000,-0.577
784.000,-1.623
785.000,-1.207
786.000,-0.067
787.000,0.379
788.000,-0.761
789.000,-0.579
790.000,0.873
791.000,-1.435
792.000,0.995
793.000,-1.169
794.000,1.718
795.000,0.194
796.000,0.762
797.000,0.040
798.000,-0.461
799.000,-1.391
800.000,0.574
801.000,1.448
802.000,0.826
803.000,1.427
804.000,0.507
805.000,-1.655
806.000,3.146
807.000,-1.769
808.000,-0.422
809.000,-0.841
810.000,-0.195
811.000,0.796
812.000,-2.557
813.000,0.426
814.000,0.259
815.000,-0.436
816.000,-1.754
817.000,-0.905
818.000,-1.376
819.000,0.866
820.000,-0.273
821.000,1.558
822.000,-1.030
823.000,0.115
824.000,-0.359
825.000,-0.252
826.000,-0.508
827.000,-0.072
828.000,0.454
829.000,-1.665
830.000,-0.153
831.000,-0.030
832.000,0.354
833.000,1.149
834.000,-0.026
835.000,-2.363
836.000,-0.041
837.000,-1.881
838.000,-1.614
839.000,0.249
840.000,-1.315
841.000,-0.418
842.000,0.414
843.000,1.122
844.000,-0.787
845.000,-0.031
846.000,1.037
847.000,-3.259
848.000,-1.008
849.000,0.702
850.000,1.188
851.000,-0.733
852.000,-0.171
853.000,2.323
854.000,-0.347
855.000,0.621
856.000,0.602
857.000,-0.960
858.000,-0.414
859.000,-0.463
860.000,1.658
861.000,-0.528
862.000,-1.541
863.000,0.441
864.000,-1.282
865.000,-1.107
866.000,-0.349
867.000,0.284
868.000,0.315
869.000,-1.543
870.000,0.747
871.000,-0.092
872.000,-1.935
873.000,-0.062
874.000,1.207
875.000,1.604
876.000,-2.179
877.000,-1.091
878.000,-1.393
879.000,1.346
880.000,-1.200
881.000,-2.827
882.000,-0.700
883.000,1.394
884.000,1.706
885.000,-1.007
886.000,-0.413
887.000,-1.490
888.000,-0.275
889.000,-0.262
890.000,-1.105
891.000,-0.115
892.000,-0.984
893.000,-0.257
894.000,2.556
895.000,0.549
896.000,3.213
897.000,0.893
898.000,1.642
899.000,-1.159
900.000,-0.407
901.000,-2.659
902.000,0.398
903.000,-0.111
904.000,-0.937
905.000,0.287
906.000,-0.379
907.000,0.553
908.000,-0.610
909.000,-3.253
910.000,0.732
911.000,0.273
912.000,-0.095
913.000,-0.380
914.000,-0.152
915.000,0.929
916.000,-0.038
917.000,-0.207
918.000,-1.211
919.000,-0.534
920.000,-0.704
921.000,-1.516
922.000,-1.522
923.000,-0.281
924.000,-1.452
925.000,0.258
926.000,-0.858
927.000,0.437
928.000,-0.784
929.000,-0.846
930.000,-0.227
931.000,0.083
932.000,-0.558
933.000,-0.837
934.000,1.115
935.000,0.102
936.000,0.271
937.000,-1.411
938.000,-0.425
939.000,-1.013
940.000,-1.402
941.000,-0.446
942.000,-1.782
943.000,-0.656
944.000,-1.228
945.000,-0.937
946.000,-0.503
947.000,-0.085
948.000,-0.204
949.000,0.237
950.000,-1.390
951.000,0.025
952.000,-0.758
953.000,-1.001
954.000,-1.759
955.000,-0.889
956.000,-0.912
957.000,-1.545
958.000,-0.368
959.000,-0.070
960.000,-1.190
961.000,-0.797
962.000,-0.697
963.000,1.740
964.000,-0.291
965.000,-0.201
966.000,-2.832
967.000,-0.253
968.000,-0.497
969.000,-0.045
970.000,-0.203
971.000,-0.117
972.000,-0.231
973.000,-0.890
974.000,-0.056
975.000,-0.608
976.000,-0.921
977.000,0.193
978.000,-0.396
979.000,-0.508
980.000,-1.195
981.000,1.768
982.000,-0.494
983.000,-1.467
984.000,-2.534
985.000,-3.025
986.000,-0.898
987.000,-1.590
988.000,0.574
989.000,-0.569
990.000,-0.375
991.000,-0.170
992.000,0.596
993.000,0.092
994.000,-3.131
995.000,-0.144
996.000,-0.366
997.000,-0.050
998.000,0.436
999.000,-1.014
1000.000,0.378
