24/03/2022 13:44:25
Spectrometer: USB2G54090
Integration time (ms): 145.0
Scans averaged: 15

Wavelength,Intensity
350.000,0.712
351.000,0.425
352.000,0.980
353.000,0.363
354.000,0.263
355.000,1.424
356.000,0.471
357.000,-0.645
358.000,-2.755
359.000,-2.758
360.000,-3.444
361.000,-6.269
362.000,-9.135
363.000,-12.653
364.000,-16.334
365.000,-20.886
366.000,-32.262
367.000,-39.700
368.000,-54.218
369.000,-61.641
370.000,-69.910
371.000,-80.344
372.000,-92.539
373.000,-95.962
374.000,-99.488
375.000,-101.240
376.000,-88.626
377.000,-79.853
378.000,-76.393
379.000,-66.371
380.000,-52.845
381.000,-48.378
382.000,-38.402
383.000,-32.500
384.000,-25.204
385.000,-21.049
386.000,-19.707
387.000,-11.334
388.000,-10.516
389.000,-8.546
390.000,-5.498
391.000,-3.809
392.000,-2.346
393.000,-3.085
394.000,-2.306
395.000,-0.263
396.000,0.100
397.000,1.770
398.000,3.390
399.000,3.122
400.000,4.378
401.000,4.504
402.000,5.342
403.000,6.469
404.000,5.273
405.000,7.035
406.000,8.246
407.000,8.715
408.000,9.535
409.000,10.022
410.000,10.636
411.000,12.826
412.000,12.722
413.000,15.084
414.000,16.922
415.000,16.145
416.000,18.087
417.000,21.693
418.000,22.137
419.000,24.347
420.000,26.477
421.000,27.231
422.000,30.092
423.000,34.093
424.000,36.282
425.000,38.965
426.000,45.122
427.000,48.838
428.000,53.278
429.000,60.023
430.000,65.097
431.000,72.837
432.000,79.642
433.000,87.459
434.000,98.016
435.000,106.426
436.000,121.812
437.000,132.323
438.000,141.840
439.000,160.322
440.000,174.261
441.000,186.117
442.000,208.109
443.000,232.026
444.000,247.613
445.000,267.759
446.000,292.867
447.000,309.608
448.000,333.606
449.000,346.715
450.000,389.484
451.000,415.832
452.000,429.302
453.000,454.112
454.000,480.978
455.000,506.281
456.000,540.956
457.000,582.782
458.000,605.763
459.000,647.266
460.000,688.809
461.000,723.479
462.000,777.099
463.000,810.979
464.000,859.094
465.000,902.310
466.000,967.807
467.000,1010.948
468.000,1094.772
469.000,1145.329
470.000,1198.679
471.000,1314.903
472.000,1384.837
473.000,1433.575
474.000,1515.623
475.000,1605.466
476.000,1677.907
477.000,1836.317
478.000,1907.456
479.000,1951.079
480.000,2138.356
481.000,2227.748
482.000,2321.734
483.000,2454.287
484.000,2557.606
485.000,2666.053
486.000,2796.924
487.000,2877.182
488.000,2926.224
489.000,3142.711
490.000,3208.312
491.000,3284.452
492.000,3364.234
493.000,3415.722
494.000,3552.052
495.000,3541.747
496.000,3654.002
497.000,3668.571
498.000,3666.055
499.000,3712.612
500.000,3665.843
501.000,3723.323
502.000,3776.514
503.000,3679.915
504.000,3693.633
505.000,3681.566
506.000,3704.224
507.000,3668.227
508.000,3576.099
509.000,3551.436
510.000,3449.453
511.000,3514.352
512.000,3407.312
513.000,3418.012
514.000,3317.150
515.000,3254.819
516.000,3198.787
517.000,3086.442
518.000,3084.409
519.000,3010.413
520.000,2969.632
521.000,2915.845
522.000,2860.535
523.000,2781.734
524.000,2682.995
525.000,2659.591
526.000,2549.796
527.000,2470.152
528.000,2426.506
529.000,2336.067
530.000,2331.331
531.000,2251.704
532.000,2178.155
533.000,2131.692
534.000,2075.521
535.000,1994.036
536.000,1931.025
537.000,1849.153
538.000,1837.376
539.000,1780.994
540.000,1740.523
541.000,1689.730
542.000,1615.729
543.000,1582.615
544.000,1536.643
545.000,1498.558
546.000,1432.604
547.000,1395.710
548.000,1339.455
549.000,1298.416
550.000,1254.401
551.000,1206.229
552.000,1155.569
553.000,1119.072
554.000,1068.884
555.000,1020.861
556.000,992.965
557.000,933.005
558.000,912.830
559.000,879.567
560.000,839.653
561.000,811.977
562.000,769.036
563.000,747.733
564.000,710.084
565.000,676.374
566.000,655.092
567.000,622.147
568.000,593.770
569.000,584.152
570.000,559.062
571.000,531.939
572.000,514.138
573.000,497.450
574.000,475.073
575.000,459.628
576.000,441.891
577.000,425.013
578.000,410.753
579.000,388.989
580.000,377.784
581.000,361.750
582.000,343.058
583.000,328.844
584.000,325.636
585.000,310.265
586.000,294.949
587.000,280.010
588.000,272.796
589.000,260.899
590.000,252.342
591.000,243.227
592.000,236.647
593.000,227.690
594.000,220.856
595.000,209.035
596.000,196.769
597.000,189.860
598.000,185.754
599.000,178.057
600.000,169.616
601.000,162.907
602.000,157.571
603.000,149.450
604.000,144.436
605.000,135.542
606.000,134.351
607.000,127.588
608.000,122.645
609.000,116.773
610.000,111.917
611.000,107.469
612.000,102.274
613.000,110.675
614.000,95.240
615.000,93.878
616.000,86.021
617.000,85.602
618.000,79.029
619.000,76.097
620.000,73.972
621.000,73.023
622.000,71.891
623.000,65.381
624.000,64.681
625.000,62.495
626.000,58.735
627.000,57.507
628.000,56.203
629.000,53.316
630.000,51.878
631.000,49.238
632.000,47.450
633.000,46.330
634.000,53.874
635.000,39.334
636.000,40.450
637.000,39.617
638.000,39.614
639.000,37.208
640.000,36.184
641.000,34.036
642.000,33.922
643.000,30.926
644.000,32.107
645.000,29.017
646.000,29.814
647.000,27.619
648.000,27.359
649.000,25.558
650.000,23.407
651.000,25.132
652.000,22.451
653.000,23.589
654.000,22.353
655.000,22.059
656.000,19.930
657.000,17.755
658.000,17.909
659.000,16.834
660.000,16.611
661.000,16.654
662.000,15.567
663.000,15.135
664.000,14.043
665.000,11.660
666.000,11.158
667.000,12.835
668.000,13.868
669.000,11.927
670.000,12.477
671.000,11.975
672.000,10.749
673.000,9.227
674.000,9.789
675.000,9.775
676.000,9.305
677.000,7.539
678.000,9.238
679.000,8.615
680.000,8.598
681.000,7.320
682.000,7.086
683.000,7.993
684.000,6.639
685.000,7.567
686.000,6.817
687.000,6.362
688.000,6.190
689.000,4.874
690.000,6.659
691.000,5.030
692.000,6.192
693.000,5.909
694.000,5.732
695.000,5.423
696.000,4.771
697.000,4.466
698.000,4.425
699.000,3.691
700.000,4.037
701.000,4.020
702.000,4.233
703.000,4.393
704.000,4.580
705.000,3.253
706.000,4.205
707.000,3.857
708.000,3.419
709.000,4.384
710.000,4.439
711.000,3.434
712.000,2.677
713.000,2.609
714.000,3.335
715.000,3.470
716.000,2.923
717.000,2.849
718.000,2.923
719.000,3.035
720.000,2.525
721.000,3.100
722.000,2.859
723.000,0.853
724.000,1.377
725.000,1.091
726.000,3.068
727.000,1.536
728.000,0.834
729.000,1.069
730.000,2.078
731.000,1.925
732.000,1.685
733.000,1.692
734.000,1.398
735.000,2.681
736.000,1.719
737.000,1.823
738.000,1.346
739.000,0.936
740.000,1.590
741.000,1.579
742.000,1.490
743.000,0.837
744.000,1.404
745.000,-0.044
746.000,1.600
747.000,2.783
748.000,0.598
749.000,2.531
750.000,-0.029
751.000,0.814
752.000,1.151
753.000,1.286
754.000,1.740
755.000,2.062
756.000,0.565
757.000,0.479
758.000,-0.189
759.000,1.105
760.000,0.494
761.000,0.949
762.000,2.996
763.000,2.026
764.000,0.077
765.000,1.224
766.000,0.357
767.000,0.772
768.000,1.148
769.000,0.423
770.000,1.213
771.000,0.602
772.000,0.202
773.000,-0.149
774.000,0.901
775.000,0.920
776.000,0.163
777.000,0.215
778.000,1.106
779.000,-0.655
780.000,0.604
781.000,-0.636
782.000,0.277
783.000,1.629
784.000,1.249
785.000,0.606
786.000,1.015
787.000,0.993
788.000,0.865
789.000,-0.605
790.000,0.999
791.000,0.889
792.000,-0.081
793.000,0.478
794.000,-0.062
795.000,0.473
796.000,1.386
797.000,1.002
798.000,0.500
799.000,1.666
800.000,0.081
801.000,1.014
802.000,0.292
803.000,0.859
804.000,-0.385
805.000,0.187
806.000,0.176
807.000,0.580
808.000,0.422
809.000,0.047
810.000,0.683
811.000,1.832
812.000,0.346
813.000,0.793
814.000,0.468
815.000,0.552
816.000,0.015
817.000,1.035
818.000,-0.466
819.000,0.053
820.000,1.775
821.000,0.702
822.000,0.201
823.000,0.933
824.000,1.264
825.000,0.152
826.000,0.237
827.000,-0.100
828.000,0.899
829.000,1.300
830.000,0.182
831.000,2.119
832.000,1.320
833.000,0.912
834.000,0.968
835.000,1.564
836.000,0.179
837.000,-0.149
838.000,0.599
839.000,1.103
840.000,0.089
841.000,0.704
842.000,0.021
843.000,0.301
844.000,1.384
845.000,-0.542
846.000,0.311
847.000,-0.283
848.000,1.128
849.000,0.894
850.000,0.279
851.000,0.141
852.000,1.256
853.000,1.315
854.000,0.062
855.000,-0.242
856.000,-0.319
857.000,-0.039
858.000,0.065
859.000,0.133
860.000,-0.783
861.000,-0.113
862.000,0.878
863.000,-0.347
864.000,1.009
865.000,1.378
866.000,-1.168
867.000,-1.432
868.000,-0.535
869.000,-0.790
870.000,-0.415
871.000,0.464
872.000,0.677
873.000,0.527
874.000,0.948
875.000,-0.069
876.000,-0.052
877.000,-0.223
878.000,-0.263
879.000,0.197
880.000,0.290
881.000,1.588
882.000,1.585
883.000,1.457
884.000,1.952
885.000,-0.092
886.000,1.154
887.000,-0.234
888.000,0.648
889.000,-0.545
890.000,-0.103
891.000,0.597
892.000,-0.200
893.000,0.479
894.000,1.017
895.000,-0.255
896.000,0.807
897.000,0.574
898.000,0.175
899.000,-0.449
900.000,0.751
901.000,1.307
902.000,0.634
903.000,0.705
904.000,-0.271
905.000,-1.662
906.000,-0.102
907.000,0.199
908.000,-0.503
909.000,0.369
910.000,0.728
911.000,0.683
912.000,-0.019
913.000,0.203
914.000,-0.820
915.000,-0.812
916.000,-0.443
917.000,1.227
918.000,-0.283
919.000,0.264
920.000,0.127
921.000,-0.803
922.000,-1.367
923.000,0.242
924.000,1.069
925.000,0.308
926.000,0.796
927.000,-0.584
928.000,0.183
929.000,-0.097
930.000,-0.875
931.000,2.381
932.000,-0.716
933.000,-0.533
934.000,0.431
935.000,-0.665
936.000,-1.082
937.000,0.546
938.000,-0.204
939.000,-0.623
940.000,-0.805
941.000,-1.444
942.000,-0.547
943.000,0.746
944.000,0.601
945.000,0.422
946.000,0.551
947.000,0.600
948.000,-0.741
949.000,0.794
950.000,0.192
951.000,0.553
952.000,-1.362
953.000,-0.766
954.000,-0.101
955.000,-0.235
956.000,-0.074
957.000,-0.851
958.000,-0.015
959.000,-0.708
960.000,-0.866
961.000,-0.765
962.000,-0.320
963.000,0.764
964.000,-0.801
965.000,-0.019
966.000,-0.468
967.000,1.068
968.000,-0.262
969.000,0.535
970.000,0.118
971.000,1.238
972.000,0.949
973.000,1.096
974.000,-8.950
975.000,-1.160
976.000,1.188
977.000,-0.097
978.000,0.089
979.000,0.472
980.000,-0.255
981.000,1.439
982.000,-0.465
983.000,0.502
984.000,-0.729
985.000,0.541
986.000,0.539
987.000,-0.691
988.000,0.062
989.000,-2.183
990.000,-1.852
991.000,0.062
992.000,0.023
993.000,-1.002
994.000,-0.301
995.000,0.206
996.000,-0.489
997.000,-0.402
998.000,0.004
999.000,0.735
1000.000,0.011
