24/03/2022 13:48:14
Spectrometer: USB2G54090
Integration time (ms): 185.0
Scans averaged: 15

Wavelength,Intensity
350.000,1.557
351.000,0.993
352.000,0.037
353.000,1.457
354.000,0.502
355.000,1.926
356.000,1.814
357.000,-0.096
358.000,1.344
359.000,-1.088
360.000,-0.201
361.000,0.520
362.000,-0.251
363.000,-2.481
364.000,-2.367
365.000,-3.422
366.000,-3.391
367.000,-7.496
368.000,-9.567
369.000,-11.256
370.000,-13.663
371.000,-16.424
372.000,-16.201
373.000,-16.593
374.000,-19.446
375.000,-17.847
376.000,-14.229
377.000,-16.213
378.000,-12.705
379.000,-14.076
380.000,-9.748
381.000,-10.136
382.000,-5.924
383.000,-3.204
384.000,-3.241
385.000,3.146
386.000,-4.327
387.000,6.180
388.000,0.225
389.000,1.031
390.000,0.339
391.000,0.798
392.000,0.588
393.000,1.435
394.000,1.020
395.000,1.063
396.000,1.620
397.000,0.392
398.000,3.523
399.000,2.466
400.000,3.733
401.000,2.810
402.000,3.854
403.000,4.859
404.000,3.950
405.000,5.805
406.000,3.651
407.000,4.689
408.000,6.240
409.000,5.218
410.000,4.991
411.000,6.133
412.000,6.544
413.000,6.146
414.000,7.781
415.000,7.920
416.000,8.145
417.000,8.369
418.000,8.717
419.000,8.585
420.000,10.404
421.000,9.111
422.000,10.742
423.000,12.210
424.000,13.540
425.000,13.915
426.000,13.700
427.000,16.664
428.000,15.809
429.000,18.991
430.000,20.425
431.000,23.268
432.000,24.356
433.000,26.806
434.000,29.655
435.000,34.001
436.000,36.275
437.000,39.303
438.000,45.614
439.000,50.073
440.000,53.746
441.000,60.371
442.000,66.932
443.000,77.226
444.000,83.614
445.000,90.766
446.000,100.578
447.000,106.914
448.000,119.201
449.000,125.650
450.000,141.387
451.000,153.365
452.000,163.474
453.000,177.895
454.000,192.735
455.000,205.885
456.000,225.164
457.000,248.159
458.000,257.841
459.000,283.289
460.000,310.452
461.000,329.766
462.000,362.272
463.000,385.090
464.000,417.392
465.000,452.352
466.000,491.627
467.000,522.336
468.000,578.163
469.000,615.681
470.000,650.510
471.000,735.677
472.000,785.237
473.000,825.814
474.000,899.572
475.000,961.517
476.000,1024.265
477.000,1149.565
478.000,1218.104
479.000,1269.819
480.000,1413.175
481.000,1501.393
482.000,1592.283
483.000,1718.642
484.000,1828.107
485.000,1944.637
486.000,2076.738
487.000,2178.827
488.000,2256.376
489.000,2464.758
490.000,2549.471
491.000,2659.044
492.000,2760.289
493.000,2854.303
494.000,3020.620
495.000,3053.290
496.000,3191.526
497.000,3253.657
498.000,3300.870
499.000,3400.284
500.000,3405.466
501.000,3491.552
502.000,3600.497
503.000,3555.119
504.000,3611.164
505.000,3661.340
506.000,3703.716
507.000,3733.378
508.000,3672.197
509.000,3684.349
510.000,3643.379
511.000,3729.070
512.000,3674.032
513.000,3722.084
514.000,3631.625
515.000,3607.254
516.000,3582.179
517.000,3476.056
518.000,3515.597
519.000,3461.057
520.000,3446.532
521.000,3412.186
522.000,3380.714
523.000,3316.056
524.000,3225.790
525.000,3212.253
526.000,3099.216
527.000,3041.510
528.000,3002.033
529.000,2906.848
530.000,2917.223
531.000,2851.112
532.000,2772.648
533.000,2724.538
534.000,2665.926
535.000,2583.868
536.000,2515.652
537.000,2417.311
538.000,2413.247
539.000,2364.557
540.000,2320.764
541.000,2255.253
542.000,2174.977
543.000,2151.887
544.000,2089.028
545.000,2040.483
546.000,1962.443
547.000,1917.745
548.000,1851.425
549.000,1803.309
550.000,1747.051
551.000,1694.314
552.000,1620.744
553.000,1586.859
554.000,1512.282
555.000,1456.662
556.000,1415.021
557.000,1338.913
558.000,1310.273
559.000,1272.906
560.000,1209.282
561.000,1173.048
562.000,1118.242
563.000,1089.367
564.000,1035.364
565.000,996.976
566.000,969.024
567.000,917.712
568.000,881.590
569.000,871.442
570.000,830.214
571.000,798.301
572.000,767.402
573.000,744.129
574.000,719.549
575.000,693.435
576.000,672.148
577.000,643.526
578.000,625.879
579.000,594.894
580.000,574.112
581.000,554.515
582.000,529.553
583.000,509.806
584.000,503.804
585.000,482.335
586.000,462.039
587.000,436.488
588.000,426.751
589.000,412.979
590.000,408.051
591.000,383.809
592.000,372.389
593.000,351.946
594.000,347.461
595.000,330.300
596.000,317.531
597.000,305.311
598.000,292.103
599.000,283.169
600.000,275.624
601.000,261.944
602.000,249.722
603.000,241.417
604.000,231.208
605.000,215.751
606.000,211.919
607.000,201.011
608.000,193.517
609.000,187.486
610.000,182.163
611.000,175.356
612.000,166.590
613.000,174.827
614.000,153.104
615.000,149.615
616.000,140.226
617.000,136.859
618.000,128.267
619.000,126.056
620.000,118.996
621.000,116.384
622.000,119.859
623.000,104.118
624.000,102.756
625.000,101.773
626.000,96.165
627.000,93.623
628.000,87.742
629.000,85.191
630.000,83.665
631.000,81.809
632.000,79.386
633.000,75.571
634.000,106.321
635.000,66.267
636.000,66.067
637.000,64.728
638.000,62.830
639.000,61.983
640.000,59.123
641.000,56.940
642.000,54.986
643.000,52.164
644.000,49.648
645.000,48.511
646.000,45.653
647.000,47.680
648.000,43.879
649.000,41.848
650.000,40.367
651.000,37.874
652.000,35.613
653.000,35.357
654.000,33.411
655.000,34.770
656.000,33.359
657.000,32.078
658.000,31.215
659.000,29.265
660.000,27.341
661.000,25.607
662.000,25.394
663.000,26.837
664.000,24.476
665.000,22.684
666.000,22.340
667.000,22.874
668.000,19.959
669.000,19.389
670.000,18.318
671.000,18.580
672.000,16.496
673.000,16.283
674.000,16.156
675.000,15.514
676.000,14.164
677.000,14.436
678.000,13.875
679.000,13.705
680.000,13.335
681.000,11.158
682.000,11.276
683.000,10.488
684.000,12.022
685.000,10.540
686.000,9.369
687.000,10.071
688.000,10.304
689.000,8.767
690.000,7.854
691.000,10.374
692.000,7.502
693.000,6.711
694.000,6.802
695.000,7.730
696.000,7.007
697.000,7.506
698.000,6.243
699.000,5.970
700.000,8.180
701.000,8.294
702.000,5.645
703.000,5.992
704.000,6.053
705.000,3.159
706.000,4.775
707.000,4.696
708.000,6.287
709.000,3.799
710.000,4.191
711.000,4.601
712.000,4.799
713.000,4.309
714.000,3.595
715.000,3.644
716.000,3.400
717.000,4.100
718.000,3.114
719.000,4.354
720.000,3.136
721.000,2.165
722.000,2.782
723.000,4.581
724.000,3.395
725.000,1.886
726.000,3.300
727.000,2.989
728.000,3.633
729.000,1.501
730.000,2.541
731.000,2.663
732.000,1.720
733.000,1.894
734.000,1.487
735.000,2.337
736.000,2.740
737.000,1.134
738.000,1.701
739.000,1.194
740.000,1.001
741.000,1.241
742.000,0.384
743.000,-0.425
744.000,0.792
745.000,1.041
746.000,0.281
747.000,2.896
748.000,1.124
749.000,0.855
750.000,1.095
751.000,1.446
752.000,0.645
753.000,0.729
754.000,1.257
755.000,0.304
756.000,-0.927
757.000,0.752
758.000,0.654
759.000,0.934
760.000,1.372
761.000,0.600
762.000,1.735
763.000,-0.171
764.000,0.542
765.000,2.264
766.000,0.099
767.000,-0.093
768.000,-0.627
769.000,0.667
770.000,1.753
771.000,1.400
772.000,-0.676
773.000,0.216
774.000,1.438
775.000,0.131
776.000,-0.032
777.000,-0.064
778.000,0.753
779.000,-0.015
780.000,0.943
781.000,1.113
782.000,0.806
783.000,-0.901
784.000,0.021
785.000,-0.075
786.000,0.886
787.000,0.642
788.000,0.641
789.000,0.291
790.000,-0.263
791.000,1.086
792.000,1.218
793.000,0.586
794.000,0.473
795.000,1.450
796.000,-0.473
797.000,-0.050
798.000,-0.969
799.000,-0.764
800.000,-0.981
801.000,0.266
802.000,0.704
803.000,-1.200
804.000,-0.073
805.000,-0.366
806.000,-0.455
807.000,-0.931
808.000,0.433
809.000,-0.266
810.000,1.426
811.000,-0.380
812.000,-0.198
813.000,0.012
814.000,1.125
815.000,0.128
816.000,-1.380
817.000,-1.984
818.000,0.896
819.000,-0.365
820.000,-0.531
821.000,0.119
822.000,0.093
823.000,-0.933
824.000,-0.130
825.000,-0.696
826.000,-1.538
827.000,-1.180
828.000,-0.133
829.000,-0.025
830.000,-0.259
831.000,0.056
832.000,0.025
833.000,-0.412
834.000,-0.894
835.000,-0.818
836.000,0.708
837.000,-0.341
838.000,-0.582
839.000,0.495
840.000,0.187
841.000,0.757
842.000,-0.136
843.000,0.766
844.000,-0.690
845.000,0.968
846.000,-0.660
847.000,-0.656
848.000,0.564
849.000,-0.238
850.000,-0.701
851.000,-1.527
852.000,-0.051
853.000,-0.107
854.000,-1.228
855.000,-0.393
856.000,0.688
857.000,-0.407
858.000,-0.002
859.000,0.039
860.000,0.191
861.000,0.067
862.000,-0.784
863.000,-0.075
864.000,-0.017
865.000,0.343
866.000,-0.674
867.000,0.037
868.000,-0.993
869.000,-1.272
870.000,-1.534
871.000,0.989
872.000,1.520
873.000,-0.327
874.000,-0.612
875.000,-0.799
876.000,-0.060
877.000,-0.024
878.000,-0.065
879.000,0.147
880.000,-0.220
881.000,-0.983
882.000,0.273
883.000,-0.730
884.000,-1.275
885.000,-1.182
886.000,-0.207
887.000,-1.237
888.000,-1.174
889.000,-2.060
890.000,-0.616
891.000,0.660
892.000,-0.411
893.000,1.116
894.000,-0.389
895.000,-0.619
896.000,-1.062
897.000,-0.648
898.000,0.307
899.000,-1.079
900.000,-0.093
901.000,-0.612
902.000,-0.299
903.000,-0.050
904.000,0.267
905.000,-0.761
906.000,-1.426
907.000,-1.290
908.000,0.809
909.000,-1.116
910.000,-0.745
911.000,-1.333
912.000,-0.384
913.000,-1.264
914.000,1.084
915.000,-0.447
916.000,0.460
917.000,-0.103
918.000,0.564
919.000,-0.562
920.000,0.332
921.000,1.597
922.000,-0.074
923.000,-1.265
924.000,-0.862
925.000,-0.753
926.000,-0.132
927.000,-1.327
928.000,-1.576
929.000,-1.110
930.000,-1.169
931.000,-0.857
932.000,-1.000
933.000,-0.516
934.000,-1.329
935.000,-0.399
936.000,-0.663
937.000,-0.640
938.000,0.166
939.000,-0.209
940.000,-0.982
941.000,-0.298
942.000,-0.633
943.000,0.238
944.000,-0.106
945.000,-0.864
946.000,-2.698
947.000,-0.885
948.000,-0.166
949.000,-1.612
950.000,-1.566
951.000,-1.149
952.000,-0.279
953.000,-1.490
954.000,-0.856
955.000,-0.419
956.000,-0.552
957.000,-0.451
958.000,-0.857
959.000,-0.128
960.000,-2.036
961.000,-0.257
962.000,-0.945
963.000,-0.771
964.000,-0.862
965.000,-0.517
966.000,0.525
967.000,-2.099
968.000,-1.023
969.000,-1.380
970.000,-0.119
971.000,-0.089
972.000,-0.345
973.000,-0.053
974.000,0.733
975.000,0.386
976.000,-1.266
977.000,-1.722
978.000,-1.520
979.000,-0.645
980.000,-0.930
981.000,-0.837
982.000,-0.295
983.000,-0.376
984.000,0.587
985.000,-1.422
986.000,-1.066
987.000,0.353
988.000,0.448
989.000,-1.426
990.000,0.324
991.000,-0.261
992.000,0.122
993.000,-0.972
994.000,-2.304
995.000,0.234
996.000,-0.060
997.000,-1.098
998.000,-1.681
999.000,0.058
1000.000,-0.550
