24/03/2022 13:52:12
Spectrometer: USB2G54090
Integration time (ms): 140.0
Scans averaged: 20

Wavelength,Intensity
350.000,1.079
351.000,1.195
352.000,0.348
353.000,0.357
354.000,1.373
355.000,-0.210
356.000,0.605
357.000,2.185
358.000,-0.230
359.000,0.536
360.000,-0.479
361.000,-1.423
362.000,-0.955
363.000,-1.009
364.000,-0.115
365.000,-1.975
366.000,-1.761
367.000,0.285
368.000,-1.939
369.000,-1.624
370.000,-4.374
371.000,-2.581
372.000,-4.884
373.000,-1.738
374.000,-1.479
375.000,-4.801
376.000,-1.972
377.000,-3.942
378.000,-1.431
379.000,-2.385
380.000,-0.618
381.000,-0.042
382.000,0.616
383.000,-0.782
384.000,1.360
385.000,-0.322
386.000,1.929
387.000,-0.308
388.000,1.333
389.000,2.527
390.000,1.242
391.000,1.397
392.000,1.742
393.000,2.894
394.000,1.960
395.000,1.911
396.000,3.723
397.000,3.392
398.000,3.957
399.000,4.246
400.000,4.768
401.000,3.975
402.000,4.922
403.000,4.775
404.000,5.011
405.000,4.100
406.000,5.455
407.000,6.105
408.000,5.431
409.000,7.052
410.000,8.235
411.000,8.034
412.000,8.666
413.000,9.881
414.000,10.808
415.000,10.091
416.000,9.856
417.000,11.907
418.000,12.034
419.000,13.009
420.000,14.972
421.000,14.333
422.000,15.205
423.000,18.701
424.000,22.001
425.000,21.593
426.000,23.405
427.000,26.154
428.000,28.223
429.000,30.384
430.000,35.192
431.000,38.309
432.000,43.064
433.000,45.029
434.000,52.532
435.000,58.077
436.000,67.314
437.000,72.829
438.000,79.091
439.000,89.357
440.000,98.455
441.000,106.388
442.000,119.000
443.000,135.713
444.000,145.958
445.000,159.170
446.000,176.307
447.000,183.217
448.000,200.628
449.000,212.514
450.000,241.223
451.000,256.422
452.000,268.712
453.000,288.252
454.000,310.343
455.000,330.390
456.000,354.726
457.000,384.650
458.000,403.559
459.000,437.805
460.000,475.968
461.000,502.529
462.000,542.546
463.000,572.378
464.000,610.779
465.000,649.399
466.000,702.306
467.000,742.073
468.000,810.574
469.000,858.223
470.000,896.408
471.000,992.667
472.000,1057.663
473.000,1113.711
474.000,1187.368
475.000,1264.585
476.000,1337.862
477.000,1475.560
478.000,1550.051
479.000,1597.059
480.000,1765.408
481.000,1855.463
482.000,1938.334
483.000,2075.163
484.000,2188.170
485.000,2304.336
486.000,2439.694
487.000,2520.619
488.000,2589.915
489.000,2811.431
490.000,2882.927
491.000,2973.460
492.000,3067.471
493.000,3150.658
494.000,3289.103
495.000,3311.305
496.000,3431.533
497.000,3470.182
498.000,3488.246
499.000,3551.115
500.000,3542.466
501.000,3610.316
502.000,3690.102
503.000,3621.711
504.000,3652.867
505.000,3670.618
506.000,3702.046
507.000,3691.450
508.000,3616.950
509.000,3607.685
510.000,3521.690
511.000,3601.388
512.000,3526.063
513.000,3553.894
514.000,3456.243
515.000,3416.896
516.000,3367.748
517.000,3253.273
518.000,3274.957
519.000,3205.763
520.000,3170.223
521.000,3132.361
522.000,3082.336
523.000,3013.389
524.000,2912.291
525.000,2897.446
526.000,2793.420
527.000,2715.539
528.000,2666.263
529.000,2578.885
530.000,2574.174
531.000,2508.822
532.000,2430.778
533.000,2380.135
534.000,2332.907
535.000,2249.110
536.000,2185.102
537.000,2086.204
538.000,2079.451
539.000,2034.311
540.000,1988.988
541.000,1923.559
542.000,1848.132
543.000,1830.019
544.000,1768.722
545.000,1723.915
546.000,1652.804
547.000,1616.535
548.000,1562.976
549.000,1509.629
550.000,1458.090
551.000,1423.135
552.000,1351.916
553.000,1311.533
554.000,1252.831
555.000,1201.724
556.000,1165.843
557.000,1097.925
558.000,1074.275
559.000,1029.214
560.000,992.460
561.000,957.863
562.000,909.763
563.000,879.215
564.000,845.302
565.000,805.034
566.000,782.437
567.000,744.712
568.000,712.267
569.000,702.423
570.000,668.219
571.000,640.777
572.000,615.199
573.000,599.422
574.000,579.362
575.000,548.046
576.000,536.451
577.000,513.423
578.000,501.660
579.000,474.780
580.000,458.643
581.000,440.655
582.000,416.603
583.000,399.030
584.000,394.957
585.000,378.599
586.000,360.893
587.000,345.422
588.000,333.393
589.000,323.122
590.000,314.593
591.000,303.508
592.000,290.075
593.000,278.930
594.000,267.679
595.000,256.556
596.000,245.737
597.000,237.240
598.000,227.063
599.000,219.749
600.000,209.983
601.000,202.369
602.000,192.529
603.000,185.977
604.000,181.220
605.000,172.201
606.000,164.611
607.000,155.996
608.000,151.135
609.000,144.636
610.000,138.866
611.000,133.419
612.000,128.799
613.000,131.954
614.000,117.498
615.000,116.788
616.000,110.478
617.000,104.058
618.000,97.019
619.000,96.013
620.000,91.887
621.000,88.998
622.000,87.873
623.000,80.195
624.000,80.867
625.000,80.066
626.000,75.087
627.000,73.321
628.000,69.085
629.000,66.417
630.000,63.223
631.000,61.851
632.000,60.669
633.000,58.373
634.000,81.166
635.000,48.468
636.000,51.234
637.000,49.463
638.000,47.409
639.000,46.305
640.000,43.241
641.000,43.515
642.000,39.667
643.000,40.008
644.000,37.509
645.000,36.018
646.000,36.161
647.000,34.352
648.000,32.356
649.000,30.215
650.000,27.622
651.000,28.574
652.000,28.287
653.000,25.698
654.000,26.175
655.000,25.783
656.000,22.658
657.000,22.889
658.000,21.141
659.000,21.563
660.000,18.681
661.000,20.093
662.000,19.041
663.000,17.953
664.000,16.884
665.000,16.558
666.000,15.354
667.000,16.688
668.000,15.251
669.000,14.270
670.000,13.302
671.000,12.871
672.000,13.231
673.000,12.657
674.000,11.375
675.000,12.495
676.000,10.825
677.000,11.172
678.000,10.854
679.000,10.375
680.000,8.797
681.000,9.207
682.000,8.540
683.000,7.122
684.000,7.432
685.000,7.056
686.000,7.229
687.000,7.789
688.000,6.278
689.000,6.414
690.000,6.591
691.000,5.364
692.000,5.173
693.000,5.241
694.000,6.068
695.000,4.426
696.000,4.543
697.000,5.006
698.000,3.798
699.000,4.155
700.000,2.683
701.000,4.201
702.000,3.930
703.000,4.074
704.000,3.692
705.000,3.118
706.000,3.333
707.000,3.816
708.000,3.229
709.000,2.315
710.000,2.713
711.000,3.381
712.000,3.378
713.000,2.453
714.000,3.018
715.000,2.980
716.000,3.086
717.000,1.872
718.000,2.326
719.000,1.717
720.000,1.459
721.000,1.385
722.000,2.033
723.000,1.516
724.000,2.167
725.000,2.255
726.000,1.129
727.000,1.469
728.000,1.339
729.000,1.923
730.000,1.579
731.000,1.803
732.000,1.365
733.000,1.024
734.000,0.304
735.000,1.859
736.000,0.420
737.000,0.701
738.000,-0.335
739.000,1.459
740.000,1.448
741.000,0.617
742.000,-0.169
743.000,-0.198
744.000,0.188
745.000,-0.489
746.000,0.149
747.000,0.702
748.000,-0.216
749.000,0.540
750.000,-0.868
751.000,0.218
752.000,-0.239
753.000,0.152
754.000,-0.082
755.000,-0.765
756.000,-0.756
757.000,-0.994
758.000,-0.105
759.000,-1.294
760.000,-1.499
761.000,-0.755
762.000,0.283
763.000,0.208
764.000,0.691
765.000,1.679
766.000,0.810
767.000,1.037
768.000,0.272
769.000,0.882
770.000,0.726
771.000,0.867
772.000,0.905
773.000,0.186
774.000,-1.298
775.000,-0.589
776.000,-0.820
777.000,0.021
778.000,-0.087
779.000,0.205
780.000,-1.506
781.000,-0.831
782.000,-0.017
783.000,0.352
784.000,0.709
785.000,-0.882
786.000,-0.178
787.000,-0.652
788.000,-0.380
789.000,-1.056
790.000,-0.505
791.000,-1.397
792.000,-1.171
793.000,-0.783
794.000,-1.114
795.000,-0.029
796.000,-0.225
797.000,-1.430
798.000,-1.381
799.000,-0.454
800.000,-0.541
801.000,-2.044
802.000,-1.219
803.000,0.203
804.000,0.206
805.000,-0.833
806.000,-0.325
807.000,-1.211
808.000,-1.022
809.000,-0.309
810.000,-0.861
811.000,-0.947
812.000,-1.739
813.000,-0.652
814.000,-1.016
815.000,-0.574
816.000,-1.521
817.000,-0.550
818.000,-1.998
819.000,-1.656
820.000,-0.765
821.000,-0.526
822.000,0.312
823.000,-1.117
824.000,0.900
825.000,-0.257
826.000,0.430
827.000,-0.882
828.000,-1.462
829.000,-0.569
830.000,-0.717
831.000,0.087
832.000,-0.498
833.000,-0.829
834.000,0.493
835.000,-0.200
836.000,-0.429
837.000,0.065
838.000,-0.855
839.000,0.455
840.000,-0.399
841.000,-1.323
842.000,-1.699
843.000,-1.255
844.000,-1.948
845.000,-1.272
846.000,-0.858
847.000,-1.100
848.000,0.085
849.000,-1.250
850.000,-2.156
851.000,-0.707
852.000,-0.055
853.000,-0.329
854.000,-1.436
855.000,-0.588
856.000,0.410
857.000,-1.915
858.000,-0.234
859.000,-0.694
860.000,-1.378
861.000,-0.395
862.000,-1.134
863.000,-0.491
864.000,-0.603
865.000,0.136
866.000,-1.062
867.000,-1.188
868.000,-2.132
869.000,1.300
870.000,0.043
871.000,0.319
872.000,-1.242
873.000,-1.273
874.000,-0.610
875.000,-2.534
876.000,-1.545
877.000,-0.548
878.000,-1.652
879.000,0.667
880.000,-0.788
881.000,-0.595
882.000,-0.573
883.000,-1.258
884.000,-0.932
885.000,-0.307
886.000,-2.546
887.000,-0.715
888.000,-0.931
889.000,-0.881
890.000,-0.531
891.000,-0.785
892.000,-0.069
893.000,-1.329
894.000,-0.889
895.000,-0.672
896.000,-1.385
897.000,-2.320
898.000,-0.272
899.000,-0.943
900.000,-0.376
901.000,-1.252
902.000,-2.913
903.000,-1.153
904.000,-1.355
905.000,0.143
906.000,-0.604
907.000,-1.821
908.000,-1.241
909.000,-0.645
910.000,-0.566
911.000,-1.004
912.000,-2.467
913.000,-1.443
914.000,-1.463
915.000,-0.727
916.000,-0.624
917.000,-0.835
918.000,-0.915
919.000,-1.091
920.000,-1.001
921.000,-1.379
922.000,-1.212
923.000,-0.565
924.000,-1.217
925.000,-0.597
926.000,-0.844
927.000,-1.471
928.000,-1.586
929.000,-0.555
930.000,-1.022
931.000,0.483
932.000,-1.929
933.000,-0.943
934.000,-1.432
935.000,-1.195
936.000,-0.437
937.000,-1.335
938.000,-1.399
939.000,-2.583
940.000,-1.058
941.000,-1.633
942.000,-0.974
943.000,-1.487
944.000,-1.416
945.000,-1.687
946.000,-2.079
947.000,-1.479
948.000,-0.712
949.000,-1.066
950.000,-1.359
951.000,-1.115
952.000,-1.788
953.000,-1.612
954.000,-0.839
955.000,-0.754
956.000,-1.407
957.000,-0.539
958.000,-2.831
959.000,-2.618
960.000,-1.317
961.000,-2.063
962.000,-0.669
963.000,-1.935
964.000,-1.724
965.000,-1.805
966.000,-1.831
967.000,-1.251
968.000,-1.142
969.000,-0.844
970.000,-1.172
971.000,-1.935
972.000,-1.455
973.000,-1.748
974.000,-3.743
975.000,-1.399
976.000,-1.998
977.000,-0.735
978.000,0.196
979.000,-1.542
980.000,-0.992
981.000,-2.375
982.000,-1.677
983.000,-1.891
984.000,-0.634
985.000,-1.411
986.000,-1.235
987.000,-2.542
988.000,-1.528
989.000,-1.830
990.000,-2.123
991.000,-1.624
992.000,-1.310
993.000,-0.487
994.000,-2.218
995.000,-1.566
996.000,-2.353
997.000,-1.763
998.000,-0.864
999.000,-2.270
1000.000,-1.723
