08/03/2022 11:35:20
Spectrometer: USB2G54089
Integration time (ms): 1250.0
Scans averaged: 5

Wavelength,Intensity
350.000,5.736
351.000,-1.200
352.000,0.751
353.000,1.243
354.000,1.965
355.000,7.279
356.000,-0.121
357.000,1.439
358.000,-0.070
359.000,-5.915
360.000,-4.291
361.000,-6.206
362.000,-12.407
363.000,-11.724
364.000,-21.541
365.000,-25.282
366.000,-31.582
367.000,-39.320
368.000,-38.081
369.000,-37.895
370.000,-54.055
371.000,-59.858
372.000,-70.501
373.000,-41.888
374.000,-37.850
375.000,-22.944
376.000,-9.597
377.000,-0.117
378.000,7.272
379.000,15.743
380.000,25.273
381.000,47.398
382.000,59.543
383.000,77.624
384.000,100.358
385.000,128.516
386.000,161.323
387.000,191.485
388.000,235.359
389.000,287.298
390.000,336.721
391.000,396.639
392.000,475.509
393.000,534.240
394.000,620.140
395.000,693.714
396.000,775.660
397.000,862.968
398.000,931.875
399.000,1017.510
400.000,1125.707
401.000,1193.952
402.000,1281.446
403.000,1378.605
404.000,1458.783
405.000,1554.068
406.000,1651.373
407.000,1711.542
408.000,1792.490
409.000,1841.368
410.000,1932.399
411.000,1941.250
412.000,2010.768
413.000,2049.683
414.000,2097.072
415.000,2131.365
416.000,2097.818
417.000,2137.886
418.000,2144.406
419.000,2144.219
420.000,2172.342
421.000,2229.655
422.000,2197.306
423.000,2224.901
424.000,2184.922
425.000,2214.817
426.000,2233.694
427.000,2188.916
428.000,2213.703
429.000,2215.936
430.000,2210.406
431.000,2200.538
432.000,2165.086
433.000,2164.477
434.000,2136.717
435.000,2143.547
436.000,2053.186
437.000,2063.834
438.000,2039.498
439.000,1965.989
440.000,1938.182
441.000,1897.480
442.000,1866.151
443.000,1779.403
444.000,1744.737
445.000,1672.081
446.000,1628.985
447.000,1567.815
448.000,1520.632
449.000,1491.958
450.000,1419.904
451.000,1375.226
452.000,1338.396
453.000,1279.511
454.000,1243.664
455.000,1230.811
456.000,1184.276
457.000,1144.575
458.000,1113.334
459.000,1086.793
460.000,1050.723
461.000,1014.681
462.000,1002.190
463.000,968.804
464.000,945.591
465.000,900.077
466.000,891.320
467.000,860.540
468.000,836.262
469.000,831.695
470.000,796.302
471.000,787.029
472.000,775.373
473.000,744.972
474.000,734.359
475.000,723.128
476.000,723.231
477.000,700.453
478.000,692.831
479.000,675.925
480.000,674.138
481.000,687.833
482.000,672.222
483.000,650.616
484.000,659.904
485.000,637.890
486.000,646.375
487.000,647.619
488.000,620.358
489.000,611.126
490.000,601.121
491.000,609.344
492.000,580.205
493.000,561.090
494.000,550.093
495.000,536.643
496.000,524.605
497.000,499.430
498.000,478.702
499.000,468.026
500.000,444.356
501.000,430.224
502.000,406.762
503.000,392.561
504.000,369.658
505.000,357.860
506.000,341.302
507.000,329.594
508.000,308.206
509.000,299.522
510.000,283.393
511.000,278.127
512.000,263.314
513.000,251.827
514.000,243.977
515.000,226.954
516.000,217.285
517.000,211.887
518.000,200.597
519.000,186.799
520.000,186.025
521.000,172.008
522.000,166.942
523.000,154.955
524.000,149.251
525.000,147.256
526.000,141.217
527.000,125.875
528.000,117.402
529.000,114.261
530.000,112.044
531.000,111.637
532.000,101.699
533.000,86.799
534.000,90.178
535.000,88.786
536.000,86.677
537.000,83.322
538.000,78.763
539.000,75.601
540.000,69.201
541.000,60.067
542.000,60.105
543.000,63.869
544.000,58.816
545.000,53.572
546.000,52.401
547.000,48.783
548.000,47.914
549.000,49.617
550.000,39.741
551.000,42.043
552.000,41.516
553.000,40.501
554.000,38.709
555.000,32.416
556.000,31.458
557.000,31.130
558.000,27.024
559.000,25.075
560.000,28.662
561.000,22.777
562.000,26.860
563.000,24.055
564.000,24.687
565.000,18.331
566.000,14.352
567.000,15.781
568.000,14.796
569.000,18.302
570.000,15.531
571.000,12.266
572.000,15.212
573.000,15.800
574.000,18.923
575.000,14.087
576.000,15.647
577.000,13.484
578.000,14.991
579.000,18.910
580.000,10.930
581.000,9.622
582.000,7.724
583.000,4.930
584.000,6.546
585.000,9.704
586.000,11.219
587.000,-3.587
588.000,7.379
589.000,6.896
590.000,5.364
591.000,7.485
592.000,7.811
593.000,7.161
594.000,1.134
595.000,5.035
596.000,5.343
597.000,8.238
598.000,8.888
599.000,12.135
600.000,4.731
601.000,3.780
602.000,4.625
603.000,4.172
604.000,0.592
605.000,4.707
606.000,2.183
607.000,2.677
608.000,3.236
609.000,3.622
610.000,2.515
611.000,1.533
612.000,3.414
613.000,3.533
614.000,2.517
615.000,2.374
616.000,4.926
617.000,5.700
618.000,4.387
619.000,0.361
620.000,3.089
621.000,3.083
622.000,4.060
623.000,3.761
624.000,-3.116
625.000,2.881
626.000,1.388
627.000,-1.071
628.000,2.089
629.000,2.620
630.000,3.819
631.000,1.000
632.000,0.601
633.000,0.535
634.000,3.267
635.000,0.035
636.000,-1.000
637.000,3.341
638.000,1.614
639.000,-0.232
640.000,-0.196
641.000,1.525
642.000,4.054
643.000,2.129
644.000,-0.664
645.000,1.714
646.000,3.853
647.000,1.313
648.000,2.586
649.000,3.091
650.000,-0.192
651.000,4.786
652.000,-0.220
653.000,2.250
654.000,4.522
655.000,-0.333
656.000,2.930
657.000,-0.869
658.000,0.105
659.000,2.693
660.000,4.047
661.000,-1.216
662.000,3.901
663.000,2.648
664.000,-2.329
665.000,0.375
666.000,3.220
667.000,-1.430
668.000,-2.297
669.000,3.781
670.000,-4.522
671.000,-1.388
672.000,0.125
673.000,1.052
674.000,-2.082
675.000,2.050
676.000,3.893
677.000,-0.297
678.000,3.772
679.000,0.337
680.000,-1.352
681.000,0.180
682.000,-0.337
683.000,-1.281
684.000,0.878
685.000,-2.342
686.000,1.091
687.000,2.101
688.000,0.804
689.000,-4.850
690.000,1.237
691.000,-3.425
692.000,0.990
693.000,-4.121
694.000,-1.783
695.000,1.524
696.000,-3.899
697.000,2.534
698.000,1.623
699.000,0.273
700.000,0.778
701.000,1.928
702.000,-0.039
703.000,0.876
704.000,-1.045
705.000,-1.562
706.000,0.177
707.000,4.951
708.000,-1.588
709.000,-0.447
710.000,1.048
711.000,0.869
712.000,2.404
713.000,-3.102
714.000,0.376
715.000,2.509
716.000,-1.433
717.000,0.255
718.000,-1.250
719.000,-0.183
720.000,-0.355
721.000,0.148
722.000,0.371
723.000,-0.619
724.000,3.236
725.000,1.638
726.000,3.408
727.000,1.151
728.000,0.478
729.000,-1.113
730.000,5.598
731.000,-0.403
732.000,-0.816
733.000,-0.987
734.000,-0.551
735.000,1.269
736.000,0.674
737.000,-0.856
738.000,2.390
739.000,6.830
740.000,-0.771
741.000,-3.117
742.000,-1.187
743.000,2.082
744.000,0.591
745.000,0.110
746.000,-0.931
747.000,-1.001
748.000,0.424
749.000,-3.539
750.000,0.592
751.000,1.506
752.000,0.887
753.000,0.203
754.000,3.042
755.000,-0.059
756.000,-0.232
757.000,-1.939
758.000,-0.042
759.000,-1.392
760.000,-0.828
761.000,-2.058
762.000,0.591
763.000,-2.704
764.000,-1.503
765.000,1.051
766.000,1.599
767.000,2.944
768.000,1.909
769.000,1.073
770.000,0.885
771.000,1.086
772.000,-1.326
773.000,-3.133
774.000,2.523
775.000,-0.013
776.000,2.228
777.000,1.485
778.000,2.233
779.000,0.808
780.000,2.913
781.000,2.981
782.000,-0.150
783.000,-1.141
784.000,4.361
785.000,3.168
786.000,0.517
787.000,-4.310
788.000,0.261
789.000,4.755
790.000,0.529
791.000,0.144
792.000,1.829
793.000,2.937
794.000,-1.841
795.000,0.157
796.000,-2.577
797.000,-0.768
798.000,-0.565
799.000,-1.527
800.000,-1.034
801.000,-2.487
802.000,1.603
803.000,-1.672
804.000,-1.592
805.000,1.971
806.000,1.983
807.000,-0.099
808.000,2.757
809.000,4.462
810.000,2.388
811.000,1.356
812.000,1.037
813.000,-1.152
814.000,2.190
815.000,-6.040
816.000,-0.959
817.000,1.393
818.000,3.413
819.000,-1.889
820.000,-0.945
821.000,-0.279
822.000,5.141
823.000,-2.747
824.000,-0.401
825.000,2.589
826.000,7.081
827.000,3.414
828.000,1.694
829.000,-3.134
830.000,-0.956
831.000,-0.672
832.000,-2.158
833.000,-1.395
834.000,1.832
835.000,1.285
836.000,3.185
837.000,0.464
838.000,0.291
839.000,-3.416
840.000,0.983
841.000,-3.168
842.000,-1.568
843.000,-2.089
844.000,-1.608
845.000,1.989
846.000,-0.225
847.000,1.410
848.000,-0.893
849.000,-0.504
850.000,1.298
851.000,-0.541
852.000,3.970
853.000,-5.758
854.000,1.546
855.000,0.244
856.000,1.572
857.000,0.704
858.000,-4.176
859.000,1.843
860.000,1.833
861.000,0.229
862.000,-1.864
863.000,1.440
864.000,1.947
865.000,0.738
866.000,-2.025
867.000,1.066
868.000,-1.531
869.000,0.106
870.000,1.398
871.000,-1.215
872.000,-2.881
873.000,-3.733
874.000,-5.862
875.000,2.605
876.000,3.222
877.000,2.801
878.000,-4.441
879.000,3.394
880.000,4.997
881.000,-1.327
882.000,0.632
883.000,-0.639
884.000,-1.974
885.000,1.971
886.000,-0.591
887.000,1.198
888.000,0.205
889.000,-0.361
890.000,-2.210
891.000,1.910
892.000,0.558
893.000,3.714
894.000,0.144
895.000,3.519
896.000,-0.403
897.000,-1.776
898.000,4.119
899.000,2.658
900.000,1.715
901.000,-0.915
902.000,0.500
903.000,-2.124
904.000,-0.615
905.000,0.923
906.000,-0.664
907.000,4.914
908.000,1.075
909.000,-4.601
910.000,-1.367
911.000,-1.047
912.000,-1.459
913.000,-3.346
914.000,0.916
915.000,-1.912
916.000,1.554
917.000,-1.558
918.000,0.017
919.000,-2.319
920.000,3.069
921.000,-2.487
922.000,3.965
923.000,0.323
924.000,0.129
925.000,-7.396
926.000,-1.357
927.000,-1.886
928.000,1.364
929.000,0.049
930.000,0.262
931.000,4.066
932.000,-0.872
933.000,2.129
934.000,0.276
935.000,-1.402
936.000,-0.363
937.000,-2.505
938.000,1.302
939.000,4.407
940.000,-0.500
941.000,0.444
942.000,1.340
943.000,4.767
944.000,8.126
945.000,-0.532
946.000,0.051
947.000,0.750
948.000,-0.697
949.000,0.739
950.000,-2.338
951.000,2.224
952.000,0.065
953.000,-1.170
954.000,0.198
955.000,-0.086
956.000,-6.124
957.000,2.197
958.000,-1.098
959.000,-3.252
960.000,-1.783
961.000,-2.234
962.000,1.182
963.000,-1.196
964.000,-3.549
965.000,0.002
966.000,1.352
967.000,-1.502
968.000,1.518
969.000,-2.099
970.000,0.805
971.000,1.272
972.000,-2.823
973.000,-0.447
974.000,-3.055
975.000,2.050
976.000,-3.598
977.000,-0.193
978.000,-0.182
979.000,1.460
980.000,0.811
981.000,1.329
982.000,-2.843
983.000,-3.705
984.000,-3.113
985.000,-2.074
986.000,-3.066
987.000,-4.011
988.000,-0.056
989.000,1.748
990.000,0.787
991.000,-0.850
992.000,1.343
993.000,-0.949
994.000,1.066
995.000,-1.029
996.000,-3.403
997.000,1.545
998.000,-1.202
999.000,-3.606
1000.000,-0.255
