24/03/2022 13:56:58
Spectrometer: USB2G54090
Integration time (ms): 195.0
Scans averaged: 20

Wavelength,Intensity
350.000,0.544
351.000,0.867
352.000,-0.507
353.000,0.590
354.000,-0.294
355.000,1.719
356.000,1.624
357.000,1.477
358.000,1.385
359.000,1.078
360.000,-0.050
361.000,-0.290
362.000,-0.690
363.000,-0.785
364.000,-1.748
365.000,-2.522
366.000,-2.576
367.000,-5.758
368.000,-9.872
369.000,-9.624
370.000,-13.298
371.000,-13.357
372.000,-13.536
373.000,-17.165
374.000,-16.110
375.000,-13.473
376.000,-11.356
377.000,-11.150
378.000,-8.889
379.000,-8.116
380.000,-3.065
381.000,-1.720
382.000,-1.666
383.000,1.795
384.000,1.909
385.000,-0.637
386.000,1.889
387.000,7.604
388.000,9.709
389.000,12.244
390.000,11.579
391.000,12.895
392.000,16.064
393.000,18.688
394.000,22.528
395.000,26.869
396.000,27.726
397.000,33.379
398.000,38.001
399.000,41.935
400.000,47.667
401.000,54.528
402.000,60.128
403.000,68.863
404.000,75.035
405.000,82.893
406.000,88.803
407.000,96.554
408.000,108.690
409.000,120.784
410.000,134.333
411.000,151.297
412.000,162.843
413.000,179.821
414.000,189.900
415.000,212.880
416.000,230.611
417.000,246.529
418.000,268.230
419.000,293.529
420.000,321.881
421.000,340.007
422.000,365.599
423.000,394.102
424.000,422.065
425.000,432.522
426.000,478.475
427.000,501.108
428.000,529.419
429.000,570.389
430.000,605.754
431.000,654.848
432.000,685.874
433.000,725.163
434.000,777.340
435.000,820.338
436.000,863.606
437.000,928.567
438.000,972.860
439.000,1041.250
440.000,1086.609
441.000,1123.300
442.000,1200.180
443.000,1288.506
444.000,1316.878
445.000,1368.105
446.000,1437.423
447.000,1447.082
448.000,1502.442
449.000,1483.453
450.000,1611.254
451.000,1645.604
452.000,1630.864
453.000,1661.138
454.000,1699.432
455.000,1717.909
456.000,1751.211
457.000,1820.869
458.000,1833.843
459.000,1892.231
460.000,1944.160
461.000,1973.920
462.000,2022.971
463.000,2044.688
464.000,2101.468
465.000,2123.233
466.000,2202.346
467.000,2216.167
468.000,2326.708
469.000,2353.739
470.000,2365.035
471.000,2510.830
472.000,2569.901
473.000,2588.818
474.000,2652.076
475.000,2716.638
476.000,2758.907
477.000,2932.093
478.000,2964.916
479.000,2937.882
480.000,3128.438
481.000,3172.179
482.000,3205.531
483.000,3303.454
484.000,3370.539
485.000,3421.351
486.000,3505.653
487.000,3511.041
488.000,3498.558
489.000,3679.468
490.000,3651.853
491.000,3648.282
492.000,3671.117
493.000,3654.905
494.000,3727.893
495.000,3645.279
496.000,3681.244
497.000,3629.649
498.000,3556.527
499.000,3535.243
500.000,3425.480
501.000,3414.533
502.000,3409.329
503.000,3277.524
504.000,3228.171
505.000,3186.154
506.000,3134.018
507.000,3069.275
508.000,2944.219
509.000,2863.802
510.000,2764.238
511.000,2758.301
512.000,2653.878
513.000,2612.167
514.000,2500.563
515.000,2437.015
516.000,2358.804
517.000,2248.431
518.000,2220.985
519.000,2133.418
520.000,2078.781
521.000,2019.457
522.000,1959.814
523.000,1878.500
524.000,1803.505
525.000,1761.152
526.000,1663.167
527.000,1603.511
528.000,1553.334
529.000,1480.254
530.000,1460.841
531.000,1408.495
532.000,1347.902
533.000,1308.717
534.000,1260.738
535.000,1200.218
536.000,1150.444
537.000,1095.074
538.000,1075.054
539.000,1045.236
540.000,1011.278
541.000,970.985
542.000,925.742
543.000,900.866
544.000,865.827
545.000,836.594
546.000,790.558
547.000,766.518
548.000,738.072
549.000,712.182
550.000,679.099
551.000,650.517
552.000,622.636
553.000,599.942
554.000,567.747
555.000,542.364
556.000,520.480
557.000,491.680
558.000,470.283
559.000,455.088
560.000,430.939
561.000,411.752
562.000,386.875
563.000,378.358
564.000,353.526
565.000,339.317
566.000,325.146
567.000,306.845
568.000,296.355
569.000,284.857
570.000,269.088
571.000,257.592
572.000,245.089
573.000,238.743
574.000,228.901
575.000,219.968
576.000,210.832
577.000,199.073
578.000,193.589
579.000,184.415
580.000,177.665
581.000,170.402
582.000,159.185
583.000,150.895
584.000,151.387
585.000,142.077
586.000,135.586
587.000,129.140
588.000,127.144
589.000,121.109
590.000,117.208
591.000,111.633
592.000,108.857
593.000,101.677
594.000,99.714
595.000,94.214
596.000,89.414
597.000,87.844
598.000,84.054
599.000,80.734
600.000,75.079
601.000,73.382
602.000,67.249
603.000,66.986
604.000,64.690
605.000,61.607
606.000,58.176
607.000,54.705
608.000,54.052
609.000,50.228
610.000,47.815
611.000,46.159
612.000,44.279
613.000,50.546
614.000,38.883
615.000,40.696
616.000,36.757
617.000,36.164
618.000,36.273
619.000,33.305
620.000,31.464
621.000,29.234
622.000,31.766
623.000,26.886
624.000,26.831
625.000,25.608
626.000,24.552
627.000,24.678
628.000,22.334
629.000,21.552
630.000,20.858
631.000,19.126
632.000,19.180
633.000,17.671
634.000,30.986
635.000,16.197
636.000,16.658
637.000,16.319
638.000,15.731
639.000,14.665
640.000,14.086
641.000,14.349
642.000,13.651
643.000,13.047
644.000,10.241
645.000,11.927
646.000,10.834
647.000,10.669
648.000,9.863
649.000,10.460
650.000,9.206
651.000,9.385
652.000,6.963
653.000,8.314
654.000,6.334
655.000,7.697
656.000,7.138
657.000,7.491
658.000,7.076
659.000,6.843
660.000,5.303
661.000,5.157
662.000,4.583
663.000,6.467
664.000,4.395
665.000,4.760
666.000,5.755
667.000,5.255
668.000,3.660
669.000,4.447
670.000,4.090
671.000,4.741
672.000,3.961
673.000,3.839
674.000,3.472
675.000,2.739
676.000,2.949
677.000,2.239
678.000,2.427
679.000,2.558
680.000,2.049
681.000,2.214
682.000,2.694
683.000,0.624
684.000,2.578
685.000,0.623
686.000,1.006
687.000,1.799
688.000,1.614
689.000,1.779
690.000,0.678
691.000,0.788
692.000,1.091
693.000,0.812
694.000,-0.250
695.000,0.776
696.000,1.258
697.000,1.306
698.000,0.540
699.000,-0.151
700.000,1.570
701.000,1.069
702.000,1.487
703.000,1.198
704.000,1.651
705.000,1.232
706.000,0.209
707.000,0.587
708.000,-0.108
709.000,-0.707
710.000,-0.567
711.000,-0.514
712.000,1.128
713.000,0.035
714.000,0.098
715.000,0.127
716.000,0.558
717.000,0.537
718.000,0.102
719.000,0.319
720.000,0.355
721.000,-0.083
722.000,0.701
723.000,0.522
724.000,-0.208
725.000,0.333
726.000,0.517
727.000,0.089
728.000,0.328
729.000,0.062
730.000,-0.372
731.000,-0.231
732.000,1.012
733.000,-0.245
734.000,0.998
735.000,-0.827
736.000,-2.008
737.000,-0.473
738.000,0.018
739.000,-0.390
740.000,-0.881
741.000,-1.243
742.000,-0.173
743.000,-1.234
744.000,-0.354
745.000,-0.665
746.000,-0.767
747.000,-1.729
748.000,-1.115
749.000,-1.764
750.000,-0.269
751.000,-0.859
752.000,-0.896
753.000,-1.151
754.000,0.513
755.000,-0.365
756.000,-0.063
757.000,-0.226
758.000,-0.084
759.000,-0.956
760.000,0.448
761.000,-1.347
762.000,-0.963
763.000,-0.917
764.000,0.057
765.000,-0.391
766.000,-1.789
767.000,-0.645
768.000,-0.767
769.000,-0.949
770.000,-0.553
771.000,-0.248
772.000,-0.724
773.000,-1.490
774.000,-1.267
775.000,-1.284
776.000,-0.931
777.000,-0.723
778.000,-1.719
779.000,-0.624
780.000,0.866
781.000,-1.162
782.000,-1.188
783.000,-1.055
784.000,-1.056
785.000,0.361
786.000,-1.351
787.000,-1.329
788.000,-2.014
789.000,-1.597
790.000,-1.145
791.000,0.094
792.000,-0.661
793.000,-1.534
794.000,-0.854
795.000,-1.116
796.000,-1.502
797.000,-2.108
798.000,-0.174
799.000,0.140
800.000,-1.502
801.000,-0.878
802.000,-0.167
803.000,-2.406
804.000,-1.074
805.000,-0.862
806.000,-0.921
807.000,-0.280
808.000,-0.855
809.000,-1.772
810.000,-1.051
811.000,-2.215
812.000,-2.615
813.000,-0.486
814.000,-0.558
815.000,-1.601
816.000,-0.687
817.000,-1.811
818.000,0.225
819.000,-1.569
820.000,-1.089
821.000,-1.173
822.000,-1.402
823.000,-1.350
824.000,-1.674
825.000,-1.691
826.000,-1.024
827.000,-1.989
828.000,-1.203
829.000,-0.803
830.000,-1.047
831.000,-0.895
832.000,-2.298
833.000,-1.418
834.000,-1.271
835.000,-0.742
836.000,-1.409
837.000,-0.931
838.000,-0.646
839.000,-0.961
840.000,-1.901
841.000,-0.861
842.000,-1.138
843.000,0.677
844.000,-1.250
845.000,-1.425
846.000,-1.090
847.000,-1.446
848.000,-0.427
849.000,-1.538
850.000,0.015
851.000,-2.045
852.000,-1.106
853.000,-2.032
854.000,-1.206
855.000,-0.611
856.000,-1.496
857.000,-0.330
858.000,-0.296
859.000,-0.143
860.000,-0.299
861.000,-0.740
862.000,-1.677
863.000,-0.431
864.000,-2.381
865.000,-1.985
866.000,-1.207
867.000,-1.829
868.000,-1.235
869.000,-0.396
870.000,-2.397
871.000,-2.324
872.000,-2.375
873.000,-2.070
874.000,-1.344
875.000,-3.196
876.000,-2.254
877.000,-2.539
878.000,-0.738
879.000,-0.746
880.000,-1.848
881.000,-2.340
882.000,-1.196
883.000,-1.799
884.000,-1.122
885.000,-2.874
886.000,-2.852
887.000,-1.837
888.000,-1.765
889.000,-1.435
890.000,-1.655
891.000,-2.148
892.000,-2.192
893.000,-1.318
894.000,-2.642
895.000,-2.089
896.000,-1.267
897.000,-0.838
898.000,-3.519
899.000,-1.752
900.000,-1.539
901.000,-2.417
902.000,-0.816
903.000,-1.273
904.000,-0.515
905.000,-2.533
906.000,-2.671
907.000,-2.703
908.000,-2.275
909.000,-2.033
910.000,-2.118
911.000,-2.194
912.000,-1.813
913.000,-1.853
914.000,-1.232
915.000,0.308
916.000,-1.539
917.000,-2.266
918.000,-0.100
919.000,-2.316
920.000,-1.171
921.000,-0.857
922.000,-2.535
923.000,-0.463
924.000,-2.548
925.000,-4.131
926.000,-1.524
927.000,-1.037
928.000,-2.714
929.000,-1.005
930.000,-1.609
931.000,-2.512
932.000,-1.458
933.000,-1.482
934.000,-1.034
935.000,-2.020
936.000,-1.557
937.000,-2.129
938.000,-2.631
939.000,-0.959
940.000,-2.149
941.000,-1.790
942.000,-2.025
943.000,-2.437
944.000,-2.074
945.000,-1.823
946.000,-1.931
947.000,-2.280
948.000,-2.290
949.000,-1.743
950.000,-2.026
951.000,-1.272
952.000,-0.275
953.000,-1.030
954.000,-2.800
955.000,-0.806
956.000,-2.561
957.000,-2.320
958.000,-1.491
959.000,-2.750
960.000,-2.927
961.000,-2.869
962.000,-2.869
963.000,-2.093
964.000,-2.949
965.000,-1.609
966.000,-0.653
967.000,-1.446
968.000,-2.070
969.000,-1.443
970.000,-1.909
971.000,-3.244
972.000,-2.246
973.000,-2.244
974.000,0.542
975.000,-0.056
976.000,-1.651
977.000,-1.923
978.000,-2.290
979.000,-1.531
980.000,-2.141
981.000,-2.408
982.000,-2.526
983.000,-2.390
984.000,-1.152
985.000,-0.981
986.000,-2.120
987.000,-0.977
988.000,-1.155
989.000,-1.355
990.000,-2.879
991.000,-2.535
992.000,-0.332
993.000,-0.992
994.000,-2.295
995.000,-1.626
996.000,-1.515
997.000,-1.755
998.000,-2.295
999.000,-2.611
1000.000,-2.312
