24/03/2022 13:27:25
Spectrometer: USB2G54090
Integration time (ms): 320.0
Scans averaged: 20

Wavelength,Intensity
350.000,3.147
351.000,2.547
352.000,2.800
353.000,3.939
354.000,2.053
355.000,5.027
356.000,2.639
357.000,3.731
358.000,5.869
359.000,4.648
360.000,3.158
361.000,3.283
362.000,4.375
363.000,5.335
364.000,3.429
365.000,4.655
366.000,9.096
367.000,6.613
368.000,8.035
369.000,11.194
370.000,13.788
371.000,13.449
372.000,15.578
373.000,17.458
374.000,16.926
375.000,18.620
376.000,14.737
377.000,18.548
378.000,17.887
379.000,17.160
380.000,18.615
381.000,17.449
382.000,16.267
383.000,18.393
384.000,15.604
385.000,20.906
386.000,19.826
387.000,20.880
388.000,25.853
389.000,31.209
390.000,31.144
391.000,36.005
392.000,43.313
393.000,52.569
394.000,57.486
395.000,66.875
396.000,77.570
397.000,86.938
398.000,98.238
399.000,108.582
400.000,121.847
401.000,137.503
402.000,153.279
403.000,176.310
404.000,187.749
405.000,212.574
406.000,229.614
407.000,248.400
408.000,272.473
409.000,298.280
410.000,331.642
411.000,372.931
412.000,398.074
413.000,441.217
414.000,464.145
415.000,511.348
416.000,548.204
417.000,579.727
418.000,632.893
419.000,681.587
420.000,735.575
421.000,769.751
422.000,811.644
423.000,868.702
424.000,915.839
425.000,934.440
426.000,1014.182
427.000,1056.503
428.000,1098.172
429.000,1166.639
430.000,1231.184
431.000,1315.377
432.000,1362.498
433.000,1411.043
434.000,1504.364
435.000,1564.968
436.000,1622.801
437.000,1725.902
438.000,1780.257
439.000,1890.447
440.000,1940.403
441.000,1979.536
442.000,2073.619
443.000,2199.058
444.000,2221.250
445.000,2280.117
446.000,2353.990
447.000,2334.539
448.000,2394.425
449.000,2338.499
450.000,2495.524
451.000,2513.162
452.000,2471.630
453.000,2487.197
454.000,2496.135
455.000,2508.843
456.000,2540.037
457.000,2587.271
458.000,2588.060
459.000,2621.904
460.000,2661.831
461.000,2675.864
462.000,2720.586
463.000,2726.069
464.000,2752.889
465.000,2756.813
466.000,2837.230
467.000,2834.527
468.000,2933.346
469.000,2946.707
470.000,2929.014
471.000,3076.848
472.000,3105.797
473.000,3105.316
474.000,3156.639
475.000,3213.138
476.000,3221.690
477.000,3401.066
478.000,3402.312
479.000,3351.187
480.000,3537.675
481.000,3556.155
482.000,3564.321
483.000,3654.932
484.000,3694.712
485.000,3722.138
486.000,3791.172
487.000,3768.225
488.000,3736.739
489.000,3893.509
490.000,3848.145
491.000,3828.158
492.000,3816.279
493.000,3779.524
494.000,3825.937
495.000,3723.065
496.000,3739.429
497.000,3661.178
498.000,3570.443
499.000,3531.908
500.000,3411.282
501.000,3378.927
502.000,3355.469
503.000,3214.990
504.000,3150.157
505.000,3086.457
506.000,3030.514
507.000,2941.681
508.000,2813.919
509.000,2733.030
510.000,2620.918
511.000,2603.059
512.000,2493.596
513.000,2455.897
514.000,2333.525
515.000,2265.000
516.000,2178.050
517.000,2073.604
518.000,2040.591
519.000,1951.094
520.000,1888.667
521.000,1835.888
522.000,1772.650
523.000,1695.508
524.000,1612.274
525.000,1574.293
526.000,1487.237
527.000,1425.605
528.000,1373.520
529.000,1318.600
530.000,1295.225
531.000,1232.031
532.000,1178.319
533.000,1137.278
534.000,1098.925
535.000,1046.084
536.000,997.528
537.000,947.692
538.000,923.970
539.000,893.973
540.000,874.653
541.000,833.086
542.000,791.318
543.000,768.953
544.000,739.360
545.000,709.315
546.000,670.446
547.000,658.296
548.000,624.554
549.000,602.195
550.000,575.184
551.000,550.736
552.000,526.664
553.000,502.565
554.000,475.298
555.000,450.955
556.000,434.886
557.000,416.739
558.000,397.053
559.000,376.946
560.000,356.042
561.000,341.262
562.000,322.548
563.000,314.871
564.000,292.142
565.000,279.505
566.000,267.823
567.000,248.614
568.000,243.489
569.000,233.926
570.000,221.554
571.000,212.844
572.000,202.995
573.000,197.355
574.000,184.649
575.000,177.266
576.000,170.781
577.000,164.166
578.000,158.334
579.000,148.899
580.000,144.297
581.000,138.290
582.000,129.668
583.000,123.287
584.000,121.017
585.000,117.518
586.000,110.384
587.000,106.525
588.000,102.697
589.000,96.573
590.000,94.198
591.000,89.793
592.000,89.090
593.000,82.565
594.000,79.026
595.000,73.965
596.000,71.122
597.000,67.551
598.000,65.454
599.000,62.043
600.000,62.697
601.000,58.913
602.000,55.524
603.000,54.640
604.000,51.564
605.000,48.292
606.000,47.978
607.000,43.436
608.000,42.081
609.000,42.491
610.000,39.006
611.000,37.784
612.000,35.119
613.000,39.822
614.000,32.434
615.000,34.422
616.000,27.998
617.000,30.481
618.000,29.775
619.000,26.999
620.000,24.723
621.000,26.191
622.000,28.426
623.000,20.685
624.000,21.897
625.000,19.260
626.000,19.639
627.000,19.535
628.000,18.134
629.000,18.695
630.000,16.147
631.000,15.245
632.000,16.074
633.000,14.375
634.000,103.645
635.000,12.956
636.000,13.628
637.000,12.853
638.000,10.892
639.000,12.225
640.000,12.112
641.000,9.760
642.000,11.479
643.000,9.802
644.000,9.396
645.000,8.957
646.000,9.728
647.000,9.841
648.000,8.744
649.000,6.848
650.000,6.902
651.000,6.517
652.000,7.743
653.000,6.121
654.000,5.929
655.000,7.533
656.000,6.634
657.000,5.739
658.000,5.097
659.000,5.570
660.000,4.234
661.000,4.401
662.000,5.714
663.000,7.626
664.000,6.036
665.000,6.574
666.000,5.192
667.000,4.659
668.000,4.842
669.000,4.057
670.000,3.870
671.000,3.993
672.000,3.604
673.000,3.439
674.000,2.996
675.000,3.525
676.000,3.352
677.000,4.081
678.000,3.008
679.000,2.099
680.000,1.768
681.000,3.517
682.000,0.651
683.000,3.117
684.000,4.365
685.000,1.510
686.000,2.482
687.000,1.495
688.000,0.260
689.000,2.539
690.000,0.946
691.000,1.610
692.000,1.421
693.000,1.191
694.000,1.484
695.000,0.963
696.000,2.269
697.000,2.136
698.000,0.512
699.000,0.837
700.000,5.017
701.000,3.432
702.000,2.441
703.000,1.186
704.000,2.455
705.000,1.000
706.000,0.723
707.000,1.094
708.000,1.373
709.000,1.747
710.000,-0.050
711.000,0.314
712.000,2.370
713.000,0.869
714.000,-1.146
715.000,0.584
716.000,0.051
717.000,0.797
718.000,-0.057
719.000,0.693
720.000,-0.187
721.000,0.860
722.000,-0.669
723.000,0.183
724.000,-0.830
725.000,-0.349
726.000,1.606
727.000,-0.350
728.000,0.433
729.000,0.569
730.000,0.496
731.000,-1.178
732.000,0.443
733.000,0.279
734.000,1.722
735.000,-0.278
736.000,2.856
737.000,0.634
738.000,3.669
739.000,0.615
740.000,-0.278
741.000,-0.940
742.000,-0.171
743.000,0.297
744.000,-0.605
745.000,2.827
746.000,0.556
747.000,-0.301
748.000,2.186
749.000,0.332
750.000,3.117
751.000,1.127
752.000,0.913
753.000,0.199
754.000,2.973
755.000,-1.579
756.000,0.254
757.000,2.254
758.000,0.510
759.000,-0.455
760.000,3.210
761.000,0.889
762.000,-0.607
763.000,-1.334
764.000,-1.252
765.000,0.914
766.000,-0.420
767.000,-0.289
768.000,-1.188
769.000,-1.295
770.000,-0.487
771.000,-0.851
772.000,-0.128
773.000,-0.422
774.000,-0.761
775.000,-0.552
776.000,-0.764
777.000,-1.889
778.000,-0.742
779.000,-1.901
780.000,1.743
781.000,-0.660
782.000,0.404
783.000,0.148
784.000,-1.842
785.000,1.784
786.000,0.263
787.000,0.161
788.000,0.114
789.000,1.220
790.000,-0.304
791.000,1.902
792.000,-0.835
793.000,-0.978
794.000,-0.343
795.000,0.518
796.000,-1.394
797.000,0.306
798.000,-0.482
799.000,0.426
800.000,-0.342
801.000,3.192
802.000,0.292
803.000,-1.874
804.000,-1.476
805.000,-0.520
806.000,1.040
807.000,1.816
808.000,-0.152
809.000,0.250
810.000,-0.541
811.000,-1.235
812.000,-0.374
813.000,-0.056
814.000,0.949
815.000,-0.943
816.000,-1.184
817.000,-1.427
818.000,4.475
819.000,0.893
820.000,-0.573
821.000,0.643
822.000,-0.643
823.000,-0.917
824.000,-1.479
825.000,-0.594
826.000,-2.246
827.000,-0.544
828.000,-0.140
829.000,1.199
830.000,0.322
831.000,-0.650
832.000,-1.250
833.000,-0.588
834.000,-0.627
835.000,-0.133
836.000,0.136
837.000,-1.101
838.000,-0.119
839.000,-0.826
840.000,-0.854
841.000,-1.560
842.000,-1.314
843.000,2.964
844.000,-0.694
845.000,-1.125
846.000,-1.097
847.000,-1.826
848.000,-1.153
849.000,-0.473
850.000,2.512
851.000,-0.520
852.000,-1.026
853.000,-0.138
854.000,-0.747
855.000,-1.031
856.000,-0.784
857.000,-0.142
858.000,-1.349
859.000,-0.398
860.000,2.100
861.000,1.299
862.000,0.129
863.000,1.741
864.000,-0.572
865.000,-0.153
866.000,-1.299
867.000,-2.324
868.000,-0.393
869.000,-1.136
870.000,-0.653
871.000,-1.728
872.000,0.066
873.000,-0.493
874.000,-0.672
875.000,-1.369
876.000,-2.557
877.000,-1.998
878.000,0.616
879.000,-0.596
880.000,-1.023
881.000,-0.843
882.000,-0.193
883.000,0.476
884.000,-0.771
885.000,-3.026
886.000,-2.139
887.000,-1.142
888.000,-0.159
889.000,-1.409
890.000,-0.716
891.000,-0.576
892.000,-1.730
893.000,0.761
894.000,-1.186
895.000,-1.898
896.000,-0.047
897.000,-0.311
898.000,0.402
899.000,-0.525
900.000,-1.758
901.000,-1.626
902.000,0.285
903.000,1.033
904.000,-0.453
905.000,-1.272
906.000,-1.459
907.000,-2.356
908.000,0.497
909.000,-0.084
910.000,-1.750
911.000,-2.030
912.000,0.765
913.000,-0.648
914.000,-0.866
915.000,-2.103
916.000,-1.019
917.000,-1.195
918.000,2.000
919.000,-0.888
920.000,-1.449
921.000,1.885
922.000,-1.490
923.000,-1.923
924.000,-1.054
925.000,-1.165
926.000,-1.553
927.000,-1.722
928.000,-0.110
929.000,-1.248
930.000,-0.046
931.000,-0.644
932.000,0.708
933.000,-0.564
934.000,-1.336
935.000,-0.841
936.000,0.882
937.000,-1.203
938.000,-1.762
939.000,0.319
940.000,-1.238
941.000,-0.179
942.000,-0.871
943.000,-0.866
944.000,-1.405
945.000,-1.251
946.000,-1.724
947.000,-1.052
948.000,-0.766
949.000,-1.946
950.000,-2.054
951.000,-2.076
952.000,0.104
953.000,-1.229
954.000,-1.045
955.000,1.195
956.000,-1.112
957.000,-1.224
958.000,-0.622
959.000,-0.679
960.000,-1.087
961.000,-1.020
962.000,-1.281
963.000,-2.122
964.000,-1.702
965.000,-0.383
966.000,1.231
967.000,0.394
968.000,-0.181
969.000,-1.943
970.000,-0.877
971.000,-0.800
972.000,-2.303
973.000,0.111
974.000,9.746
975.000,-0.970
976.000,-2.302
977.000,-1.206
978.000,-1.156
979.000,-1.409
980.000,-1.639
981.000,-0.785
982.000,-1.401
983.000,-1.513
984.000,-2.233
985.000,-1.297
986.000,-2.038
987.000,0.306
988.000,-1.777
989.000,-1.583
990.000,0.727
991.000,-0.275
992.000,2.005
993.000,-1.496
994.000,-1.050
995.000,-1.281
996.000,-1.704
997.000,-1.404
998.000,-2.448
999.000,-2.025
1000.000,-1.515
